Created as New Dataset,Monday, April 03 2023
cm-1,A
4000.00,0.0423
3999.00,0.0423
3998.00,0.0423
3997.00,0.0422
3996.00,0.0422
3995.00,0.0421
3994.00,0.0421
3993.00,0.0420
3992.00,0.0420
3991.00,0.0421
3990.00,0.0421
3989.00,0.0421
3988.00,0.0421
3987.00,0.0421
3986.00,0.0421
3985.00,0.0421
3984.00,0.0421
3983.00,0.0421
3982.00,0.0422
3981.00,0.0421
3980.00,0.0421
3979.00,0.0421
3978.00,0.0420
3977.00,0.0420
3976.00,0.0419
3975.00,0.0419
3974.00,0.0418
3973.00,0.0419
3972.00,0.0419
3971.00,0.0420
3970.00,0.0421
3969.00,0.0421
3968.00,0.0421
3967.00,0.0420
3966.00,0.0419
3965.00,0.0419
3964.00,0.0419
3963.00,0.0420
3962.00,0.0420
3961.00,0.0419
3960.00,0.0419
3959.00,0.0418
3958.00,0.0418
3957.00,0.0419
3956.00,0.0418
3955.00,0.0417
3954.00,0.0416
3953.00,0.0414
3952.00,0.0413
3951.00,0.0414
3950.00,0.0415
3949.00,0.0415
3948.00,0.0415
3947.00,0.0414
3946.00,0.0413
3945.00,0.0414
3944.00,0.0414
3943.00,0.0414
3942.00,0.0413
3941.00,0.0413
3940.00,0.0414
3939.00,0.0416
3938.00,0.0417
3937.00,0.0416
3936.00,0.0414
3935.00,0.0413
3934.00,0.0412
3933.00,0.0412
3932.00,0.0412
3931.00,0.0412
3930.00,0.0412
3929.00,0.0411
3928.00,0.0412
3927.00,0.0412
3926.00,0.0413
3925.00,0.0413
3924.00,0.0411
3923.00,0.0410
3922.00,0.0409
3921.00,0.0410
3920.00,0.0410
3919.00,0.0411
3918.00,0.0413
3917.00,0.0414
3916.00,0.0415
3915.00,0.0416
3914.00,0.0417
3913.00,0.0419
3912.00,0.0420
3911.00,0.0418
3910.00,0.0415
3909.00,0.0411
3908.00,0.0406
3907.00,0.0402
3906.00,0.0399
3905.00,0.0396
3904.00,0.0394
3903.00,0.0392
3902.00,0.0395
3901.00,0.0401
3900.00,0.0406
3899.00,0.0408
3898.00,0.0408
3897.00,0.0408
3896.00,0.0408
3895.00,0.0408
3894.00,0.0408
3893.00,0.0410
3892.00,0.0411
3891.00,0.0407
3890.00,0.0401
3889.00,0.0399
3888.00,0.0403
3887.00,0.0408
3886.00,0.0409
3885.00,0.0403
3884.00,0.0397
3883.00,0.0398
3882.00,0.0404
3881.00,0.0407
3880.00,0.0406
3879.00,0.0401
3878.00,0.0401
3877.00,0.0405
3876.00,0.0408
3875.00,0.0406
3874.00,0.0398
3873.00,0.0391
3872.00,0.0393
3871.00,0.0399
3870.00,0.0402
3869.00,0.0397
3868.00,0.0393
3867.00,0.0396
3866.00,0.0402
3865.00,0.0405
3864.00,0.0405
3863.00,0.0405
3862.00,0.0406
3861.00,0.0407
3860.00,0.0406
3859.00,0.0401
3858.00,0.0394
3857.00,0.0384
3856.00,0.0378
3855.00,0.0382
3854.00,0.0393
3853.00,0.0396
3852.00,0.0391
3851.00,0.0395
3850.00,0.0407
3849.00,0.0413
3848.00,0.0414
3847.00,0.0411
3846.00,0.0408
3845.00,0.0405
3844.00,0.0400
3843.00,0.0394
3842.00,0.0389
3841.00,0.0387
3840.00,0.0389
3839.00,0.0393
3838.00,0.0394
3837.00,0.0394
3836.00,0.0394
3835.00,0.0398
3834.00,0.0403
3833.00,0.0408
3832.00,0.0409
3831.00,0.0408
3830.00,0.0407
3829.00,0.0408
3828.00,0.0410
3827.00,0.0408
3826.00,0.0402
3825.00,0.0395
3824.00,0.0392
3823.00,0.0395
3822.00,0.0400
3821.00,0.0397
3820.00,0.0388
3819.00,0.0387
3818.00,0.0397
3817.00,0.0409
3816.00,0.0415
3815.00,0.0412
3814.00,0.0412
3813.00,0.0416
3812.00,0.0418
3811.00,0.0414
3810.00,0.0409
3809.00,0.0409
3808.00,0.0411
3807.00,0.0409
3806.00,0.0401
3805.00,0.0395
3804.00,0.0398
3803.00,0.0405
3802.00,0.0410
3801.00,0.0405
3800.00,0.0398
3799.00,0.0399
3798.00,0.0408
3797.00,0.0414
3796.00,0.0415
3795.00,0.0414
3794.00,0.0416
3793.00,0.0420
3792.00,0.0422
3791.00,0.0423
3790.00,0.0421
3789.00,0.0420
3788.00,0.0419
3787.00,0.0419
3786.00,0.0420
3785.00,0.0419
3784.00,0.0417
3783.00,0.0414
3782.00,0.0413
3781.00,0.0415
3780.00,0.0417
3779.00,0.0417
3778.00,0.0416
3777.00,0.0417
3776.00,0.0419
3775.00,0.0420
3774.00,0.0417
3773.00,0.0413
3772.00,0.0413
3771.00,0.0413
3770.00,0.0411
3769.00,0.0408
3768.00,0.0407
3767.00,0.0411
3766.00,0.0415
3765.00,0.0415
3764.00,0.0412
3763.00,0.0410
3762.00,0.0411
3761.00,0.0411
3760.00,0.0410
3759.00,0.0407
3758.00,0.0404
3757.00,0.0400
3756.00,0.0395
3755.00,0.0391
3754.00,0.0388
3753.00,0.0385
3752.00,0.0387
3751.00,0.0392
3750.00,0.0392
3749.00,0.0388
3748.00,0.0386
3747.00,0.0392
3746.00,0.0403
3745.00,0.0412
3744.00,0.0407
3743.00,0.0397
3742.00,0.0398
3741.00,0.0404
3740.00,0.0403
3739.00,0.0397
3738.00,0.0392
3737.00,0.0390
3736.00,0.0390
3735.00,0.0390
3734.00,0.0392
3733.00,0.0398
3732.00,0.0402
3731.00,0.0404
3730.00,0.0406
3729.00,0.0409
3728.00,0.0412
3727.00,0.0412
3726.00,0.0410
3725.00,0.0408
3724.00,0.0408
3723.00,0.0410
3722.00,0.0411
3721.00,0.0412
3720.00,0.0415
3719.00,0.0417
3718.00,0.0417
3717.00,0.0414
3716.00,0.0410
3715.00,0.0406
3714.00,0.0404
3713.00,0.0405
3712.00,0.0407
3711.00,0.0408
3710.00,0.0409
3709.00,0.0412
3708.00,0.0416
3707.00,0.0420
3706.00,0.0423
3705.00,0.0423
3704.00,0.0424
3703.00,0.0425
3702.00,0.0425
3701.00,0.0424
3700.00,0.0424
3699.00,0.0426
3698.00,0.0429
3697.00,0.0430
3696.00,0.0427
3695.00,0.0422
3694.00,0.0417
3693.00,0.0412
3692.00,0.0408
3691.00,0.0409
3690.00,0.0415
3689.00,0.0420
3688.00,0.0421
3687.00,0.0422
3686.00,0.0426
3685.00,0.0432
3684.00,0.0433
3683.00,0.0430
3682.00,0.0425
3681.00,0.0419
3680.00,0.0410
3679.00,0.0400
3678.00,0.0395
3677.00,0.0398
3676.00,0.0404
3675.00,0.0400
3674.00,0.0391
3673.00,0.0393
3672.00,0.0403
3671.00,0.0414
3670.00,0.0420
3669.00,0.0419
3668.00,0.0418
3667.00,0.0423
3666.00,0.0428
3665.00,0.0431
3664.00,0.0432
3663.00,0.0432
3662.00,0.0431
3661.00,0.0428
3660.00,0.0425
3659.00,0.0424
3658.00,0.0426
3657.00,0.0427
3656.00,0.0425
3655.00,0.0418
3654.00,0.0412
3653.00,0.0407
3652.00,0.0401
3651.00,0.0396
3650.00,0.0396
3649.00,0.0400
3648.00,0.0403
3647.00,0.0407
3646.00,0.0413
3645.00,0.0420
3644.00,0.0427
3643.00,0.0431
3642.00,0.0432
3641.00,0.0432
3640.00,0.0431
3639.00,0.0431
3638.00,0.0430
3637.00,0.0429
3636.00,0.0428
3635.00,0.0426
3634.00,0.0421
3633.00,0.0413
3632.00,0.0407
3631.00,0.0407
3630.00,0.0414
3629.00,0.0420
3628.00,0.0419
3627.00,0.0418
3626.00,0.0424
3625.00,0.0429
3624.00,0.0429
3623.00,0.0425
3622.00,0.0422
3621.00,0.0421
3620.00,0.0422
3619.00,0.0421
3618.00,0.0417
3617.00,0.0415
3616.00,0.0416
3615.00,0.0419
3614.00,0.0420
3613.00,0.0419
3612.00,0.0417
3611.00,0.0417
3610.00,0.0421
3609.00,0.0427
3608.00,0.0430
3607.00,0.0430
3606.00,0.0430
3605.00,0.0430
3604.00,0.0430
3603.00,0.0429
3602.00,0.0430
3601.00,0.0430
3600.00,0.0429
3599.00,0.0427
3598.00,0.0425
3597.00,0.0425
3596.00,0.0425
3595.00,0.0426
3594.00,0.0426
3593.00,0.0425
3592.00,0.0423
3591.00,0.0421
3590.00,0.0420
3589.00,0.0421
3588.00,0.0423
3587.00,0.0425
3586.00,0.0425
3585.00,0.0427
3584.00,0.0431
3583.00,0.0434
3582.00,0.0435
3581.00,0.0435
3580.00,0.0435
3579.00,0.0434
3578.00,0.0434
3577.00,0.0435
3576.00,0.0435
3575.00,0.0435
3574.00,0.0435
3573.00,0.0433
3572.00,0.0430
3571.00,0.0424
3570.00,0.0419
3569.00,0.0417
3568.00,0.0418
3567.00,0.0420
3566.00,0.0420
3565.00,0.0421
3564.00,0.0423
3563.00,0.0427
3562.00,0.0431
3561.00,0.0434
3560.00,0.0436
3559.00,0.0437
3558.00,0.0438
3557.00,0.0438
3556.00,0.0437
3555.00,0.0437
3554.00,0.0437
3553.00,0.0437
3552.00,0.0436
3551.00,0.0435
3550.00,0.0435
3549.00,0.0434
3548.00,0.0434
3547.00,0.0435
3546.00,0.0436
3545.00,0.0437
3544.00,0.0438
3543.00,0.0440
3542.00,0.0441
3541.00,0.0441
3540.00,0.0440
3539.00,0.0439
3538.00,0.0438
3537.00,0.0438
3536.00,0.0439
3535.00,0.0439
3534.00,0.0440
3533.00,0.0440
3532.00,0.0439
3531.00,0.0438
3530.00,0.0436
3529.00,0.0434
3528.00,0.0433
3527.00,0.0432
3526.00,0.0433
3525.00,0.0436
3524.00,0.0438
3523.00,0.0440
3522.00,0.0440
3521.00,0.0440
3520.00,0.0440
3519.00,0.0439
3518.00,0.0440
3517.00,0.0440
3516.00,0.0440
3515.00,0.0439
3514.00,0.0439
3513.00,0.0440
3512.00,0.0440
3511.00,0.0440
3510.00,0.0440
3509.00,0.0439
3508.00,0.0438
3507.00,0.0437
3506.00,0.0436
3505.00,0.0437
3504.00,0.0438
3503.00,0.0439
3502.00,0.0440
3501.00,0.0440
3500.00,0.0441
3499.00,0.0442
3498.00,0.0444
3497.00,0.0445
3496.00,0.0445
3495.00,0.0445
3494.00,0.0444
3493.00,0.0444
3492.00,0.0443
3491.00,0.0443
3490.00,0.0442
3489.00,0.0442
3488.00,0.0442
3487.00,0.0441
3486.00,0.0441
3485.00,0.0440
3484.00,0.0440
3483.00,0.0441
3482.00,0.0441
3481.00,0.0442
3480.00,0.0442
3479.00,0.0442
3478.00,0.0443
3477.00,0.0443
3476.00,0.0444
3475.00,0.0445
3474.00,0.0445
3473.00,0.0445
3472.00,0.0445
3471.00,0.0445
3470.00,0.0445
3469.00,0.0445
3468.00,0.0445
3467.00,0.0445
3466.00,0.0445
3465.00,0.0445
3464.00,0.0445
3463.00,0.0444
3462.00,0.0443
3461.00,0.0442
3460.00,0.0442
3459.00,0.0443
3458.00,0.0445
3457.00,0.0445
3456.00,0.0445
3455.00,0.0444
3454.00,0.0444
3453.00,0.0444
3452.00,0.0444
3451.00,0.0444
3450.00,0.0443
3449.00,0.0443
3448.00,0.0442
3447.00,0.0442
3446.00,0.0442
3445.00,0.0442
3444.00,0.0443
3443.00,0.0444
3442.00,0.0444
3441.00,0.0443
3440.00,0.0443
3439.00,0.0443
3438.00,0.0443
3437.00,0.0444
3436.00,0.0444
3435.00,0.0443
3434.00,0.0443
3433.00,0.0443
3432.00,0.0443
3431.00,0.0444
3430.00,0.0444
3429.00,0.0444
3428.00,0.0443
3427.00,0.0443
3426.00,0.0444
3425.00,0.0444
3424.00,0.0445
3423.00,0.0445
3422.00,0.0445
3421.00,0.0445
3420.00,0.0445
3419.00,0.0445
3418.00,0.0445
3417.00,0.0445
3416.00,0.0445
3415.00,0.0444
3414.00,0.0444
3413.00,0.0444
3412.00,0.0445
3411.00,0.0445
3410.00,0.0445
3409.00,0.0445
3408.00,0.0446
3407.00,0.0446
3406.00,0.0446
3405.00,0.0445
3404.00,0.0444
3403.00,0.0444
3402.00,0.0444
3401.00,0.0444
3400.00,0.0444
3399.00,0.0445
3398.00,0.0444
3397.00,0.0444
3396.00,0.0443
3395.00,0.0443
3394.00,0.0443
3393.00,0.0444
3392.00,0.0444
3391.00,0.0445
3390.00,0.0446
3389.00,0.0446
3388.00,0.0446
3387.00,0.0445
3386.00,0.0445
3385.00,0.0445
3384.00,0.0445
3383.00,0.0446
3382.00,0.0446
3381.00,0.0446
3380.00,0.0447
3379.00,0.0447
3378.00,0.0448
3377.00,0.0447
3376.00,0.0447
3375.00,0.0446
3374.00,0.0446
3373.00,0.0446
3372.00,0.0445
3371.00,0.0445
3370.00,0.0444
3369.00,0.0444
3368.00,0.0445
3367.00,0.0445
3366.00,0.0444
3365.00,0.0444
3364.00,0.0443
3363.00,0.0444
3362.00,0.0445
3361.00,0.0446
3360.00,0.0447
3359.00,0.0447
3358.00,0.0447
3357.00,0.0446
3356.00,0.0446
3355.00,0.0447
3354.00,0.0447
3353.00,0.0447
3352.00,0.0447
3351.00,0.0447
3350.00,0.0447
3349.00,0.0447
3348.00,0.0447
3347.00,0.0447
3346.00,0.0447
3345.00,0.0446
3344.00,0.0446
3343.00,0.0445
3342.00,0.0445
3341.00,0.0446
3340.00,0.0446
3339.00,0.0447
3338.00,0.0447
3337.00,0.0447
3336.00,0.0447
3335.00,0.0447
3334.00,0.0447
3333.00,0.0447
3332.00,0.0447
3331.00,0.0446
3330.00,0.0445
3329.00,0.0445
3328.00,0.0445
3327.00,0.0445
3326.00,0.0446
3325.00,0.0447
3324.00,0.0448
3323.00,0.0448
3322.00,0.0448
3321.00,0.0447
3320.00,0.0447
3319.00,0.0447
3318.00,0.0447
3317.00,0.0446
3316.00,0.0446
3315.00,0.0446
3314.00,0.0446
3313.00,0.0446
3312.00,0.0446
3311.00,0.0446
3310.00,0.0446
3309.00,0.0447
3308.00,0.0448
3307.00,0.0448
3306.00,0.0448
3305.00,0.0447
3304.00,0.0447
3303.00,0.0447
3302.00,0.0447
3301.00,0.0447
3300.00,0.0447
3299.00,0.0447
3298.00,0.0447
3297.00,0.0448
3296.00,0.0448
3295.00,0.0449
3294.00,0.0449
3293.00,0.0449
3292.00,0.0448
3291.00,0.0447
3290.00,0.0447
3289.00,0.0447
3288.00,0.0448
3287.00,0.0448
3286.00,0.0448
3285.00,0.0449
3284.00,0.0449
3283.00,0.0449
3282.00,0.0449
3281.00,0.0449
3280.00,0.0449
3279.00,0.0448
3278.00,0.0448
3277.00,0.0448
3276.00,0.0448
3275.00,0.0448
3274.00,0.0448
3273.00,0.0448
3272.00,0.0449
3271.00,0.0449
3270.00,0.0450
3269.00,0.0451
3268.00,0.0451
3267.00,0.0451
3266.00,0.0450
3265.00,0.0449
3264.00,0.0448
3263.00,0.0448
3262.00,0.0448
3261.00,0.0449
3260.00,0.0449
3259.00,0.0450
3258.00,0.0450
3257.00,0.0449
3256.00,0.0449
3255.00,0.0449
3254.00,0.0449
3253.00,0.0449
3252.00,0.0449
3251.00,0.0449
3250.00,0.0449
3249.00,0.0449
3248.00,0.0449
3247.00,0.0449
3246.00,0.0449
3245.00,0.0449
3244.00,0.0450
3243.00,0.0450
3242.00,0.0450
3241.00,0.0450
3240.00,0.0450
3239.00,0.0450
3238.00,0.0451
3237.00,0.0452
3236.00,0.0453
3235.00,0.0453
3234.00,0.0453
3233.00,0.0453
3232.00,0.0452
3231.00,0.0452
3230.00,0.0451
3229.00,0.0451
3228.00,0.0451
3227.00,0.0451
3226.00,0.0451
3225.00,0.0451
3224.00,0.0451
3223.00,0.0451
3222.00,0.0451
3221.00,0.0451
3220.00,0.0451
3219.00,0.0450
3218.00,0.0450
3217.00,0.0450
3216.00,0.0451
3215.00,0.0452
3214.00,0.0452
3213.00,0.0452
3212.00,0.0451
3211.00,0.0451
3210.00,0.0450
3209.00,0.0450
3208.00,0.0451
3207.00,0.0451
3206.00,0.0452
3205.00,0.0452
3204.00,0.0453
3203.00,0.0453
3202.00,0.0453
3201.00,0.0453
3200.00,0.0453
3199.00,0.0453
3198.00,0.0453
3197.00,0.0453
3196.00,0.0453
3195.00,0.0453
3194.00,0.0453
3193.00,0.0453
3192.00,0.0453
3191.00,0.0452
3190.00,0.0452
3189.00,0.0451
3188.00,0.0451
3187.00,0.0450
3186.00,0.0450
3185.00,0.0451
3184.00,0.0452
3183.00,0.0453
3182.00,0.0453
3181.00,0.0453
3180.00,0.0453
3179.00,0.0453
3178.00,0.0452
3177.00,0.0451
3176.00,0.0451
3175.00,0.0451
3174.00,0.0451
3173.00,0.0452
3172.00,0.0452
3171.00,0.0453
3170.00,0.0453
3169.00,0.0453
3168.00,0.0453
3167.00,0.0453
3166.00,0.0453
3165.00,0.0454
3164.00,0.0455
3163.00,0.0455
3162.00,0.0455
3161.00,0.0454
3160.00,0.0453
3159.00,0.0452
3158.00,0.0451
3157.00,0.0451
3156.00,0.0451
3155.00,0.0452
3154.00,0.0453
3153.00,0.0454
3152.00,0.0454
3151.00,0.0454
3150.00,0.0454
3149.00,0.0454
3148.00,0.0454
3147.00,0.0454
3146.00,0.0454
3145.00,0.0454
3144.00,0.0454
3143.00,0.0454
3142.00,0.0454
3141.00,0.0453
3140.00,0.0453
3139.00,0.0453
3138.00,0.0454
3137.00,0.0454
3136.00,0.0455
3135.00,0.0455
3134.00,0.0454
3133.00,0.0454
3132.00,0.0454
3131.00,0.0454
3130.00,0.0455
3129.00,0.0455
3128.00,0.0455
3127.00,0.0455
3126.00,0.0455
3125.00,0.0455
3124.00,0.0455
3123.00,0.0454
3122.00,0.0454
3121.00,0.0454
3120.00,0.0454
3119.00,0.0454
3118.00,0.0455
3117.00,0.0455
3116.00,0.0454
3115.00,0.0454
3114.00,0.0454
3113.00,0.0454
3112.00,0.0455
3111.00,0.0455
3110.00,0.0455
3109.00,0.0455
3108.00,0.0455
3107.00,0.0455
3106.00,0.0456
3105.00,0.0456
3104.00,0.0457
3103.00,0.0456
3102.00,0.0456
3101.00,0.0455
3100.00,0.0455
3099.00,0.0454
3098.00,0.0454
3097.00,0.0455
3096.00,0.0456
3095.00,0.0458
3094.00,0.0458
3093.00,0.0459
3092.00,0.0459
3091.00,0.0458
3090.00,0.0458
3089.00,0.0457
3088.00,0.0456
3087.00,0.0456
3086.00,0.0457
3085.00,0.0458
3084.00,0.0458
3083.00,0.0458
3082.00,0.0458
3081.00,0.0458
3080.00,0.0458
3079.00,0.0458
3078.00,0.0458
3077.00,0.0458
3076.00,0.0458
3075.00,0.0459
3074.00,0.0459
3073.00,0.0459
3072.00,0.0460
3071.00,0.0460
3070.00,0.0460
3069.00,0.0460
3068.00,0.0460
3067.00,0.0460
3066.00,0.0460
3065.00,0.0459
3064.00,0.0458
3063.00,0.0458
3062.00,0.0458
3061.00,0.0459
3060.00,0.0459
3059.00,0.0459
3058.00,0.0459
3057.00,0.0459
3056.00,0.0460
3055.00,0.0460
3054.00,0.0460
3053.00,0.0460
3052.00,0.0460
3051.00,0.0460
3050.00,0.0461
3049.00,0.0462
3048.00,0.0462
3047.00,0.0462
3046.00,0.0462
3045.00,0.0462
3044.00,0.0462
3043.00,0.0461
3042.00,0.0460
3041.00,0.0460
3040.00,0.0459
3039.00,0.0459
3038.00,0.0460
3037.00,0.0460
3036.00,0.0461
3035.00,0.0461
3034.00,0.0462
3033.00,0.0462
3032.00,0.0461
3031.00,0.0461
3030.00,0.0460
3029.00,0.0460
3028.00,0.0460
3027.00,0.0460
3026.00,0.0460
3025.00,0.0460
3024.00,0.0461
3023.00,0.0461
3022.00,0.0461
3021.00,0.0461
3020.00,0.0461
3019.00,0.0460
3018.00,0.0460
3017.00,0.0460
3016.00,0.0459
3015.00,0.0459
3014.00,0.0458
3013.00,0.0457
3012.00,0.0457
3011.00,0.0457
3010.00,0.0456
3009.00,0.0455
3008.00,0.0454
3007.00,0.0452
3006.00,0.0451
3005.00,0.0451
3004.00,0.0450
3003.00,0.0449
3002.00,0.0447
3001.00,0.0446
3000.00,0.0445
2999.00,0.0444
2998.00,0.0443
2997.00,0.0442
2996.00,0.0441
2995.00,0.0440
2994.00,0.0440
2993.00,0.0439
2992.00,0.0439
2991.00,0.0438
2990.00,0.0437
2989.00,0.0437
2988.00,0.0436
2987.00,0.0435
2986.00,0.0432
2985.00,0.0429
2984.00,0.0425
2983.00,0.0422
2982.00,0.0421
2981.00,0.0421
2980.00,0.0422
2979.00,0.0424
2978.00,0.0426
2977.00,0.0428
2976.00,0.0430
2975.00,0.0431
2974.00,0.0430
2973.00,0.0429
2972.00,0.0429
2971.00,0.0429
2970.00,0.0431
2969.00,0.0433
2968.00,0.0435
2967.00,0.0436
2966.00,0.0437
2965.00,0.0437
2964.00,0.0438
2963.00,0.0439
2962.00,0.0440
2961.00,0.0441
2960.00,0.0442
2959.00,0.0442
2958.00,0.0442
2957.00,0.0443
2956.00,0.0444
2955.00,0.0445
2954.00,0.0446
2953.00,0.0447
2952.00,0.0448
2951.00,0.0449
2950.00,0.0450
2949.00,0.0450
2948.00,0.0450
2947.00,0.0451
2946.00,0.0451
2945.00,0.0451
2944.00,0.0452
2943.00,0.0452
2942.00,0.0453
2941.00,0.0453
2940.00,0.0453
2939.00,0.0453
2938.00,0.0453
2937.00,0.0453
2936.00,0.0453
2935.00,0.0453
2934.00,0.0453
2933.00,0.0453
2932.00,0.0453
2931.00,0.0453
2930.00,0.0453
2929.00,0.0453
2928.00,0.0454
2927.00,0.0454
2926.00,0.0454
2925.00,0.0454
2924.00,0.0455
2923.00,0.0455
2922.00,0.0455
2921.00,0.0454
2920.00,0.0454
2919.00,0.0453
2918.00,0.0453
2917.00,0.0453
2916.00,0.0453
2915.00,0.0453
2914.00,0.0453
2913.00,0.0454
2912.00,0.0454
2911.00,0.0455
2910.00,0.0455
2909.00,0.0456
2908.00,0.0455
2907.00,0.0455
2906.00,0.0455
2905.00,0.0455
2904.00,0.0455
2903.00,0.0455
2902.00,0.0454
2901.00,0.0454
2900.00,0.0454
2899.00,0.0454
2898.00,0.0454
2897.00,0.0454
2896.00,0.0454
2895.00,0.0455
2894.00,0.0454
2893.00,0.0454
2892.00,0.0454
2891.00,0.0454
2890.00,0.0454
2889.00,0.0454
2888.00,0.0454
2887.00,0.0454
2886.00,0.0454
2885.00,0.0454
2884.00,0.0454
2883.00,0.0454
2882.00,0.0454
2881.00,0.0454
2880.00,0.0455
2879.00,0.0456
2878.00,0.0457
2877.00,0.0457
2876.00,0.0457
2875.00,0.0457
2874.00,0.0457
2873.00,0.0457
2872.00,0.0457
2871.00,0.0457
2870.00,0.0457
2869.00,0.0457
2868.00,0.0457
2867.00,0.0457
2866.00,0.0457
2865.00,0.0458
2864.00,0.0458
2863.00,0.0459
2862.00,0.0459
2861.00,0.0460
2860.00,0.0461
2859.00,0.0462
2858.00,0.0463
2857.00,0.0463
2856.00,0.0463
2855.00,0.0462
2854.00,0.0462
2853.00,0.0462
2852.00,0.0462
2851.00,0.0463
2850.00,0.0464
2849.00,0.0465
2848.00,0.0465
2847.00,0.0465
2846.00,0.0465
2845.00,0.0465
2844.00,0.0465
2843.00,0.0465
2842.00,0.0465
2841.00,0.0464
2840.00,0.0464
2839.00,0.0463
2838.00,0.0463
2837.00,0.0464
2836.00,0.0465
2835.00,0.0466
2834.00,0.0466
2833.00,0.0466
2832.00,0.0465
2831.00,0.0464
2830.00,0.0464
2829.00,0.0465
2828.00,0.0465
2827.00,0.0465
2826.00,0.0465
2825.00,0.0465
2824.00,0.0466
2823.00,0.0466
2822.00,0.0465
2821.00,0.0465
2820.00,0.0465
2819.00,0.0464
2818.00,0.0464
2817.00,0.0464
2816.00,0.0464
2815.00,0.0464
2814.00,0.0463
2813.00,0.0463
2812.00,0.0463
2811.00,0.0463
2810.00,0.0463
2809.00,0.0464
2808.00,0.0464
2807.00,0.0464
2806.00,0.0465
2805.00,0.0465
2804.00,0.0465
2803.00,0.0465
2802.00,0.0465
2801.00,0.0465
2800.00,0.0465
2799.00,0.0465
2798.00,0.0465
2797.00,0.0465
2796.00,0.0465
2795.00,0.0465
2794.00,0.0465
2793.00,0.0465
2792.00,0.0465
2791.00,0.0465
2790.00,0.0465
2789.00,0.0465
2788.00,0.0465
2787.00,0.0465
2786.00,0.0464
2785.00,0.0464
2784.00,0.0464
2783.00,0.0464
2782.00,0.0463
2781.00,0.0463
2780.00,0.0462
2779.00,0.0463
2778.00,0.0463
2777.00,0.0464
2776.00,0.0465
2775.00,0.0464
2774.00,0.0464
2773.00,0.0464
2772.00,0.0464
2771.00,0.0463
2770.00,0.0463
2769.00,0.0462
2768.00,0.0462
2767.00,0.0462
2766.00,0.0462
2765.00,0.0463
2764.00,0.0463
2763.00,0.0463
2762.00,0.0463
2761.00,0.0463
2760.00,0.0464
2759.00,0.0464
2758.00,0.0464
2757.00,0.0463
2756.00,0.0463
2755.00,0.0463
2754.00,0.0463
2753.00,0.0463
2752.00,0.0463
2751.00,0.0463
2750.00,0.0464
2749.00,0.0464
2748.00,0.0464
2747.00,0.0464
2746.00,0.0464
2745.00,0.0464
2744.00,0.0464
2743.00,0.0464
2742.00,0.0464
2741.00,0.0464
2740.00,0.0464
2739.00,0.0463
2738.00,0.0463
2737.00,0.0463
2736.00,0.0463
2735.00,0.0463
2734.00,0.0463
2733.00,0.0464
2732.00,0.0464
2731.00,0.0464
2730.00,0.0463
2729.00,0.0463
2728.00,0.0463
2727.00,0.0463
2726.00,0.0463
2725.00,0.0463
2724.00,0.0463
2723.00,0.0463
2722.00,0.0463
2721.00,0.0463
2720.00,0.0463
2719.00,0.0463
2718.00,0.0463
2717.00,0.0464
2716.00,0.0464
2715.00,0.0464
2714.00,0.0464
2713.00,0.0463
2712.00,0.0463
2711.00,0.0463
2710.00,0.0463
2709.00,0.0463
2708.00,0.0463
2707.00,0.0463
2706.00,0.0463
2705.00,0.0463
2704.00,0.0463
2703.00,0.0463
2702.00,0.0463
2701.00,0.0463
2700.00,0.0463
2699.00,0.0463
2698.00,0.0463
2697.00,0.0463
2696.00,0.0463
2695.00,0.0463
2694.00,0.0464
2693.00,0.0464
2692.00,0.0464
2691.00,0.0464
2690.00,0.0463
2689.00,0.0463
2688.00,0.0463
2687.00,0.0463
2686.00,0.0463
2685.00,0.0464
2684.00,0.0464
2683.00,0.0463
2682.00,0.0463
2681.00,0.0463
2680.00,0.0463
2679.00,0.0463
2678.00,0.0462
2677.00,0.0462
2676.00,0.0462
2675.00,0.0462
2674.00,0.0462
2673.00,0.0463
2672.00,0.0463
2671.00,0.0463
2670.00,0.0462
2669.00,0.0462
2668.00,0.0463
2667.00,0.0463
2666.00,0.0463
2665.00,0.0463
2664.00,0.0463
2663.00,0.0463
2662.00,0.0464
2661.00,0.0463
2660.00,0.0463
2659.00,0.0464
2658.00,0.0464
2657.00,0.0464
2656.00,0.0464
2655.00,0.0464
2654.00,0.0464
2653.00,0.0465
2652.00,0.0465
2651.00,0.0465
2650.00,0.0465
2649.00,0.0465
2648.00,0.0464
2647.00,0.0464
2646.00,0.0464
2645.00,0.0464
2644.00,0.0465
2643.00,0.0465
2642.00,0.0465
2641.00,0.0465
2640.00,0.0465
2639.00,0.0465
2638.00,0.0465
2637.00,0.0465
2636.00,0.0465
2635.00,0.0465
2634.00,0.0466
2633.00,0.0466
2632.00,0.0466
2631.00,0.0467
2630.00,0.0466
2629.00,0.0466
2628.00,0.0465
2627.00,0.0465
2626.00,0.0465
2625.00,0.0466
2624.00,0.0466
2623.00,0.0467
2622.00,0.0467
2621.00,0.0467
2620.00,0.0468
2619.00,0.0468
2618.00,0.0468
2617.00,0.0468
2616.00,0.0467
2615.00,0.0466
2614.00,0.0466
2613.00,0.0467
2612.00,0.0467
2611.00,0.0468
2610.00,0.0468
2609.00,0.0468
2608.00,0.0467
2607.00,0.0467
2606.00,0.0468
2605.00,0.0468
2604.00,0.0469
2603.00,0.0469
2602.00,0.0469
2601.00,0.0469
2600.00,0.0469
2599.00,0.0468
2598.00,0.0467
2597.00,0.0467
2596.00,0.0467
2595.00,0.0467
2594.00,0.0467
2593.00,0.0468
2592.00,0.0469
2591.00,0.0469
2590.00,0.0469
2589.00,0.0469
2588.00,0.0469
2587.00,0.0469
2586.00,0.0469
2585.00,0.0468
2584.00,0.0468
2583.00,0.0469
2582.00,0.0469
2581.00,0.0470
2580.00,0.0470
2579.00,0.0470
2578.00,0.0470
2577.00,0.0469
2576.00,0.0469
2575.00,0.0468
2574.00,0.0468
2573.00,0.0469
2572.00,0.0469
2571.00,0.0469
2570.00,0.0469
2569.00,0.0469
2568.00,0.0470
2567.00,0.0471
2566.00,0.0472
2565.00,0.0473
2564.00,0.0473
2563.00,0.0473
2562.00,0.0473
2561.00,0.0473
2560.00,0.0472
2559.00,0.0472
2558.00,0.0472
2557.00,0.0472
2556.00,0.0473
2555.00,0.0473
2554.00,0.0473
2553.00,0.0472
2552.00,0.0472
2551.00,0.0471
2550.00,0.0471
2549.00,0.0469
2548.00,0.0468
2547.00,0.0468
2546.00,0.0468
2545.00,0.0469
2544.00,0.0470
2543.00,0.0471
2542.00,0.0470
2541.00,0.0469
2540.00,0.0468
2539.00,0.0468
2538.00,0.0467
2537.00,0.0468
2536.00,0.0468
2535.00,0.0469
2534.00,0.0471
2533.00,0.0472
2532.00,0.0472
2531.00,0.0472
2530.00,0.0471
2529.00,0.0471
2528.00,0.0470
2527.00,0.0470
2526.00,0.0470
2525.00,0.0469
2524.00,0.0469
2523.00,0.0470
2522.00,0.0470
2521.00,0.0471
2520.00,0.0471
2519.00,0.0472
2518.00,0.0473
2517.00,0.0474
2516.00,0.0475
2515.00,0.0475
2514.00,0.0474
2513.00,0.0473
2512.00,0.0472
2511.00,0.0473
2510.00,0.0473
2509.00,0.0474
2508.00,0.0475
2507.00,0.0475
2506.00,0.0475
2505.00,0.0475
2504.00,0.0474
2503.00,0.0474
2502.00,0.0474
2501.00,0.0475
2500.00,0.0475
2499.00,0.0475
2498.00,0.0475
2497.00,0.0475
2496.00,0.0475
2495.00,0.0476
2494.00,0.0476
2493.00,0.0476
2492.00,0.0476
2491.00,0.0477
2490.00,0.0477
2489.00,0.0478
2488.00,0.0478
2487.00,0.0478
2486.00,0.0478
2485.00,0.0477
2484.00,0.0476
2483.00,0.0476
2482.00,0.0477
2481.00,0.0478
2480.00,0.0478
2479.00,0.0478
2478.00,0.0478
2477.00,0.0477
2476.00,0.0477
2475.00,0.0477
2474.00,0.0478
2473.00,0.0478
2472.00,0.0478
2471.00,0.0478
2470.00,0.0478
2469.00,0.0478
2468.00,0.0478
2467.00,0.0477
2466.00,0.0477
2465.00,0.0477
2464.00,0.0477
2463.00,0.0477
2462.00,0.0477
2461.00,0.0478
2460.00,0.0478
2459.00,0.0479
2458.00,0.0480
2457.00,0.0480
2456.00,0.0480
2455.00,0.0480
2454.00,0.0480
2453.00,0.0481
2452.00,0.0481
2451.00,0.0481
2450.00,0.0480
2449.00,0.0480
2448.00,0.0480
2447.00,0.0480
2446.00,0.0480
2445.00,0.0480
2444.00,0.0480
2443.00,0.0479
2442.00,0.0479
2441.00,0.0479
2440.00,0.0480
2439.00,0.0481
2438.00,0.0481
2437.00,0.0481
2436.00,0.0481
2435.00,0.0480
2434.00,0.0480
2433.00,0.0480
2432.00,0.0480
2431.00,0.0480
2430.00,0.0481
2429.00,0.0481
2428.00,0.0481
2427.00,0.0481
2426.00,0.0481
2425.00,0.0481
2424.00,0.0482
2423.00,0.0482
2422.00,0.0482
2421.00,0.0482
2420.00,0.0482
2419.00,0.0482
2418.00,0.0482
2417.00,0.0481
2416.00,0.0481
2415.00,0.0481
2414.00,0.0481
2413.00,0.0482
2412.00,0.0482
2411.00,0.0482
2410.00,0.0482
2409.00,0.0483
2408.00,0.0483
2407.00,0.0483
2406.00,0.0483
2405.00,0.0483
2404.00,0.0483
2403.00,0.0482
2402.00,0.0482
2401.00,0.0481
2400.00,0.0482
2399.00,0.0482
2398.00,0.0482
2397.00,0.0482
2396.00,0.0482
2395.00,0.0481
2394.00,0.0481
2393.00,0.0481
2392.00,0.0481
2391.00,0.0481
2390.00,0.0481
2389.00,0.0481
2388.00,0.0481
2387.00,0.0481
2386.00,0.0480
2385.00,0.0479
2384.00,0.0478
2383.00,0.0477
2382.00,0.0477
2381.00,0.0478
2380.00,0.0479
2379.00,0.0480
2378.00,0.0481
2377.00,0.0481
2376.00,0.0480
2375.00,0.0480
2374.00,0.0481
2373.00,0.0482
2372.00,0.0482
2371.00,0.0482
2370.00,0.0480
2369.00,0.0477
2368.00,0.0476
2367.00,0.0477
2366.00,0.0480
2365.00,0.0483
2364.00,0.0484
2363.00,0.0483
2362.00,0.0481
2361.00,0.0481
2360.00,0.0482
2359.00,0.0484
2358.00,0.0485
2357.00,0.0486
2356.00,0.0486
2355.00,0.0486
2354.00,0.0485
2353.00,0.0483
2352.00,0.0482
2351.00,0.0482
2350.00,0.0481
2349.00,0.0479
2348.00,0.0476
2347.00,0.0472
2346.00,0.0470
2345.00,0.0472
2344.00,0.0476
2343.00,0.0480
2342.00,0.0483
2341.00,0.0485
2340.00,0.0485
2339.00,0.0484
2338.00,0.0482
2337.00,0.0481
2336.00,0.0482
2335.00,0.0484
2334.00,0.0486
2333.00,0.0487
2332.00,0.0486
2331.00,0.0485
2330.00,0.0484
2329.00,0.0484
2328.00,0.0485
2327.00,0.0486
2326.00,0.0487
2325.00,0.0487
2324.00,0.0486
2323.00,0.0485
2322.00,0.0485
2321.00,0.0486
2320.00,0.0486
2319.00,0.0487
2318.00,0.0488
2317.00,0.0488
2316.00,0.0488
2315.00,0.0487
2314.00,0.0487
2313.00,0.0486
2312.00,0.0487
2311.00,0.0487
2310.00,0.0488
2309.00,0.0489
2308.00,0.0489
2307.00,0.0489
2306.00,0.0489
2305.00,0.0488
2304.00,0.0488
2303.00,0.0486
2302.00,0.0485
2301.00,0.0485
2300.00,0.0485
2299.00,0.0485
2298.00,0.0485
2297.00,0.0485
2296.00,0.0485
2295.00,0.0485
2294.00,0.0486
2293.00,0.0488
2292.00,0.0490
2291.00,0.0490
2290.00,0.0490
2289.00,0.0490
2288.00,0.0490
2287.00,0.0490
2286.00,0.0492
2285.00,0.0493
2284.00,0.0494
2283.00,0.0494
2282.00,0.0494
2281.00,0.0493
2280.00,0.0492
2279.00,0.0492
2278.00,0.0493
2277.00,0.0493
2276.00,0.0492
2275.00,0.0492
2274.00,0.0491
2273.00,0.0490
2272.00,0.0490
2271.00,0.0490
2270.00,0.0491
2269.00,0.0490
2268.00,0.0490
2267.00,0.0489
2266.00,0.0489
2265.00,0.0489
2264.00,0.0490
2263.00,0.0491
2262.00,0.0491
2261.00,0.0490
2260.00,0.0490
2259.00,0.0489
2258.00,0.0488
2257.00,0.0486
2256.00,0.0486
2255.00,0.0486
2254.00,0.0488
2253.00,0.0489
2252.00,0.0489
2251.00,0.0489
2250.00,0.0489
2249.00,0.0489
2248.00,0.0488
2247.00,0.0489
2246.00,0.0490
2245.00,0.0490
2244.00,0.0491
2243.00,0.0490
2242.00,0.0490
2241.00,0.0490
2240.00,0.0489
2239.00,0.0488
2238.00,0.0488
2237.00,0.0488
2236.00,0.0488
2235.00,0.0488
2234.00,0.0489
2233.00,0.0490
2232.00,0.0490
2231.00,0.0489
2230.00,0.0487
2229.00,0.0486
2228.00,0.0486
2227.00,0.0487
2226.00,0.0488
2225.00,0.0488
2224.00,0.0488
2223.00,0.0487
2222.00,0.0486
2221.00,0.0485
2220.00,0.0486
2219.00,0.0487
2218.00,0.0488
2217.00,0.0489
2216.00,0.0490
2215.00,0.0491
2214.00,0.0492
2213.00,0.0492
2212.00,0.0491
2211.00,0.0488
2210.00,0.0487
2209.00,0.0487
2208.00,0.0488
2207.00,0.0489
2206.00,0.0490
2205.00,0.0490
2204.00,0.0490
2203.00,0.0489
2202.00,0.0488
2201.00,0.0487
2200.00,0.0486
2199.00,0.0485
2198.00,0.0485
2197.00,0.0485
2196.00,0.0486
2195.00,0.0486
2194.00,0.0486
2193.00,0.0486
2192.00,0.0485
2191.00,0.0484
2190.00,0.0483
2189.00,0.0483
2188.00,0.0485
2187.00,0.0488
2186.00,0.0491
2185.00,0.0492
2184.00,0.0489
2183.00,0.0485
2182.00,0.0482
2181.00,0.0481
2180.00,0.0483
2179.00,0.0485
2178.00,0.0487
2177.00,0.0488
2176.00,0.0488
2175.00,0.0486
2174.00,0.0485
2173.00,0.0484
2172.00,0.0485
2171.00,0.0486
2170.00,0.0489
2169.00,0.0490
2168.00,0.0490
2167.00,0.0490
2166.00,0.0490
2165.00,0.0491
2164.00,0.0493
2163.00,0.0495
2162.00,0.0496
2161.00,0.0494
2160.00,0.0491
2159.00,0.0486
2158.00,0.0483
2157.00,0.0481
2156.00,0.0482
2155.00,0.0484
2154.00,0.0487
2153.00,0.0489
2152.00,0.0488
2151.00,0.0486
2150.00,0.0483
2149.00,0.0482
2148.00,0.0484
2147.00,0.0487
2146.00,0.0489
2145.00,0.0491
2144.00,0.0492
2143.00,0.0492
2142.00,0.0493
2141.00,0.0495
2140.00,0.0495
2139.00,0.0493
2138.00,0.0491
2137.00,0.0490
2136.00,0.0488
2135.00,0.0488
2134.00,0.0488
2133.00,0.0489
2132.00,0.0489
2131.00,0.0489
2130.00,0.0490
2129.00,0.0492
2128.00,0.0493
2127.00,0.0494
2126.00,0.0494
2125.00,0.0493
2124.00,0.0492
2123.00,0.0491
2122.00,0.0491
2121.00,0.0490
2120.00,0.0490
2119.00,0.0490
2118.00,0.0490
2117.00,0.0490
2116.00,0.0489
2115.00,0.0487
2114.00,0.0485
2113.00,0.0485
2112.00,0.0486
2111.00,0.0488
2110.00,0.0490
2109.00,0.0491
2108.00,0.0493
2107.00,0.0494
2106.00,0.0495
2105.00,0.0494
2104.00,0.0494
2103.00,0.0493
2102.00,0.0493
2101.00,0.0492
2100.00,0.0491
2099.00,0.0489
2098.00,0.0488
2097.00,0.0488
2096.00,0.0489
2095.00,0.0490
2094.00,0.0491
2093.00,0.0491
2092.00,0.0491
2091.00,0.0490
2090.00,0.0489
2089.00,0.0489
2088.00,0.0489
2087.00,0.0490
2086.00,0.0491
2085.00,0.0493
2084.00,0.0494
2083.00,0.0495
2082.00,0.0495
2081.00,0.0494
2080.00,0.0493
2079.00,0.0493
2078.00,0.0493
2077.00,0.0494
2076.00,0.0495
2075.00,0.0495
2074.00,0.0495
2073.00,0.0495
2072.00,0.0495
2071.00,0.0496
2070.00,0.0497
2069.00,0.0495
2068.00,0.0491
2067.00,0.0489
2066.00,0.0488
2065.00,0.0488
2064.00,0.0490
2063.00,0.0492
2062.00,0.0493
2061.00,0.0492
2060.00,0.0491
2059.00,0.0489
2058.00,0.0488
2057.00,0.0489
2056.00,0.0490
2055.00,0.0491
2054.00,0.0492
2053.00,0.0495
2052.00,0.0496
2051.00,0.0495
2050.00,0.0493
2049.00,0.0490
2048.00,0.0488
2047.00,0.0488
2046.00,0.0490
2045.00,0.0492
2044.00,0.0495
2043.00,0.0496
2042.00,0.0497
2041.00,0.0496
2040.00,0.0494
2039.00,0.0492
2038.00,0.0492
2037.00,0.0495
2036.00,0.0497
2035.00,0.0497
2034.00,0.0496
2033.00,0.0496
2032.00,0.0497
2031.00,0.0499
2030.00,0.0500
2029.00,0.0499
2028.00,0.0496
2027.00,0.0494
2026.00,0.0493
2025.00,0.0492
2024.00,0.0490
2023.00,0.0488
2022.00,0.0486
2021.00,0.0485
2020.00,0.0483
2019.00,0.0481
2018.00,0.0480
2017.00,0.0480
2016.00,0.0482
2015.00,0.0485
2014.00,0.0487
2013.00,0.0489
2012.00,0.0489
2011.00,0.0489
2010.00,0.0490
2009.00,0.0491
2008.00,0.0492
2007.00,0.0492
2006.00,0.0492
2005.00,0.0491
2004.00,0.0491
2003.00,0.0493
2002.00,0.0497
2001.00,0.0500
2000.00,0.0499
1999.00,0.0497
1998.00,0.0495
1997.00,0.0496
1996.00,0.0498
1995.00,0.0500
1994.00,0.0501
1993.00,0.0501
1992.00,0.0500
1991.00,0.0498
1990.00,0.0495
1989.00,0.0493
1988.00,0.0492
1987.00,0.0492
1986.00,0.0493
1985.00,0.0493
1984.00,0.0494
1983.00,0.0495
1982.00,0.0496
1981.00,0.0495
1980.00,0.0494
1979.00,0.0490
1978.00,0.0487
1977.00,0.0486
1976.00,0.0487
1975.00,0.0491
1974.00,0.0494
1973.00,0.0495
1972.00,0.0493
1971.00,0.0490
1970.00,0.0490
1969.00,0.0493
1968.00,0.0494
1967.00,0.0494
1966.00,0.0492
1965.00,0.0491
1964.00,0.0492
1963.00,0.0492
1962.00,0.0493
1961.00,0.0494
1960.00,0.0496
1959.00,0.0498
1958.00,0.0499
1957.00,0.0499
1956.00,0.0497
1955.00,0.0496
1954.00,0.0496
1953.00,0.0497
1952.00,0.0497
1951.00,0.0495
1950.00,0.0494
1949.00,0.0494
1948.00,0.0494
1947.00,0.0495
1946.00,0.0496
1945.00,0.0495
1944.00,0.0493
1943.00,0.0492
1942.00,0.0492
1941.00,0.0492
1940.00,0.0491
1939.00,0.0490
1938.00,0.0490
1937.00,0.0491
1936.00,0.0492
1935.00,0.0492
1934.00,0.0492
1933.00,0.0492
1932.00,0.0493
1931.00,0.0495
1930.00,0.0497
1929.00,0.0498
1928.00,0.0499
1927.00,0.0499
1926.00,0.0499
1925.00,0.0499
1924.00,0.0499
1923.00,0.0498
1922.00,0.0497
1921.00,0.0498
1920.00,0.0497
1919.00,0.0497
1918.00,0.0497
1917.00,0.0497
1916.00,0.0498
1915.00,0.0498
1914.00,0.0498
1913.00,0.0497
1912.00,0.0497
1911.00,0.0497
1910.00,0.0496
1909.00,0.0495
1908.00,0.0495
1907.00,0.0494
1906.00,0.0495
1905.00,0.0496
1904.00,0.0497
1903.00,0.0498
1902.00,0.0498
1901.00,0.0498
1900.00,0.0498
1899.00,0.0498
1898.00,0.0498
1897.00,0.0498
1896.00,0.0497
1895.00,0.0496
1894.00,0.0496
1893.00,0.0497
1892.00,0.0497
1891.00,0.0498
1890.00,0.0498
1889.00,0.0498
1888.00,0.0498
1887.00,0.0497
1886.00,0.0497
1885.00,0.0497
1884.00,0.0498
1883.00,0.0499
1882.00,0.0499
1881.00,0.0499
1880.00,0.0499
1879.00,0.0498
1878.00,0.0498
1877.00,0.0497
1876.00,0.0497
1875.00,0.0498
1874.00,0.0498
1873.00,0.0499
1872.00,0.0499
1871.00,0.0499
1870.00,0.0498
1869.00,0.0498
1868.00,0.0499
1867.00,0.0500
1866.00,0.0501
1865.00,0.0501
1864.00,0.0501
1863.00,0.0499
1862.00,0.0498
1861.00,0.0497
1860.00,0.0497
1859.00,0.0497
1858.00,0.0498
1857.00,0.0499
1856.00,0.0500
1855.00,0.0500
1854.00,0.0500
1853.00,0.0499
1852.00,0.0499
1851.00,0.0499
1850.00,0.0499
1849.00,0.0499
1848.00,0.0499
1847.00,0.0499
1846.00,0.0500
1845.00,0.0501
1844.00,0.0501
1843.00,0.0500
1842.00,0.0500
1841.00,0.0500
1840.00,0.0500
1839.00,0.0499
1838.00,0.0499
1837.00,0.0499
1836.00,0.0499
1835.00,0.0499
1834.00,0.0499
1833.00,0.0499
1832.00,0.0500
1831.00,0.0501
1830.00,0.0501
1829.00,0.0501
1828.00,0.0501
1827.00,0.0501
1826.00,0.0501
1825.00,0.0501
1824.00,0.0500
1823.00,0.0500
1822.00,0.0500
1821.00,0.0500
1820.00,0.0500
1819.00,0.0499
1818.00,0.0500
1817.00,0.0500
1816.00,0.0500
1815.00,0.0499
1814.00,0.0498
1813.00,0.0498
1812.00,0.0498
1811.00,0.0498
1810.00,0.0499
1809.00,0.0500
1808.00,0.0500
1807.00,0.0500
1806.00,0.0500
1805.00,0.0500
1804.00,0.0499
1803.00,0.0498
1802.00,0.0498
1801.00,0.0498
1800.00,0.0499
1799.00,0.0498
1798.00,0.0498
1797.00,0.0498
1796.00,0.0498
1795.00,0.0498
1794.00,0.0498
1793.00,0.0499
1792.00,0.0500
1791.00,0.0500
1790.00,0.0499
1789.00,0.0499
1788.00,0.0499
1787.00,0.0498
1786.00,0.0498
1785.00,0.0499
1784.00,0.0498
1783.00,0.0497
1782.00,0.0496
1781.00,0.0496
1780.00,0.0495
1779.00,0.0495
1778.00,0.0495
1777.00,0.0495
1776.00,0.0495
1775.00,0.0496
1774.00,0.0495
1773.00,0.0495
1772.00,0.0494
1771.00,0.0495
1770.00,0.0496
1769.00,0.0497
1768.00,0.0497
1767.00,0.0496
1766.00,0.0496
1765.00,0.0496
1764.00,0.0496
1763.00,0.0495
1762.00,0.0494
1761.00,0.0493
1760.00,0.0493
1759.00,0.0493
1758.00,0.0493
1757.00,0.0492
1756.00,0.0492
1755.00,0.0493
1754.00,0.0493
1753.00,0.0493
1752.00,0.0491
1751.00,0.0489
1750.00,0.0489
1749.00,0.0489
1748.00,0.0490
1747.00,0.0491
1746.00,0.0491
1745.00,0.0490
1744.00,0.0491
1743.00,0.0491
1742.00,0.0492
1741.00,0.0493
1740.00,0.0493
1739.00,0.0492
1738.00,0.0493
1737.00,0.0495
1736.00,0.0495
1735.00,0.0495
1734.00,0.0495
1733.00,0.0492
1732.00,0.0491
1731.00,0.0492
1730.00,0.0493
1729.00,0.0493
1728.00,0.0493
1727.00,0.0493
1726.00,0.0492
1725.00,0.0492
1724.00,0.0492
1723.00,0.0492
1722.00,0.0492
1721.00,0.0492
1720.00,0.0491
1719.00,0.0489
1718.00,0.0488
1717.00,0.0489
1716.00,0.0491
1715.00,0.0492
1714.00,0.0493
1713.00,0.0494
1712.00,0.0494
1711.00,0.0493
1710.00,0.0492
1709.00,0.0491
1708.00,0.0491
1707.00,0.0490
1706.00,0.0490
1705.00,0.0490
1704.00,0.0493
1703.00,0.0496
1702.00,0.0499
1701.00,0.0498
1700.00,0.0495
1699.00,0.0491
1698.00,0.0493
1697.00,0.0497
1696.00,0.0498
1695.00,0.0494
1694.00,0.0491
1693.00,0.0492
1692.00,0.0492
1691.00,0.0491
1690.00,0.0490
1689.00,0.0490
1688.00,0.0492
1687.00,0.0493
1686.00,0.0491
1685.00,0.0489
1684.00,0.0488
1683.00,0.0487
1682.00,0.0487
1681.00,0.0487
1680.00,0.0488
1679.00,0.0488
1678.00,0.0491
1677.00,0.0492
1676.00,0.0492
1675.00,0.0491
1674.00,0.0489
1673.00,0.0488
1672.00,0.0487
1671.00,0.0487
1670.00,0.0488
1669.00,0.0489
1668.00,0.0488
1667.00,0.0488
1666.00,0.0488
1665.00,0.0487
1664.00,0.0485
1663.00,0.0485
1662.00,0.0485
1661.00,0.0485
1660.00,0.0486
1659.00,0.0487
1658.00,0.0487
1657.00,0.0488
1656.00,0.0487
1655.00,0.0486
1654.00,0.0486
1653.00,0.0487
1652.00,0.0480
1651.00,0.0478
1650.00,0.0480
1649.00,0.0479
1648.00,0.0479
1647.00,0.0482
1646.00,0.0484
1645.00,0.0484
1644.00,0.0484
1643.00,0.0484
1642.00,0.0484
1641.00,0.0482
1640.00,0.0481
1639.00,0.0480
1638.00,0.0480
1637.00,0.0481
1636.00,0.0484
1635.00,0.0485
1634.00,0.0482
1633.00,0.0481
1632.00,0.0480
1631.00,0.0478
1630.00,0.0478
1629.00,0.0477
1628.00,0.0477
1627.00,0.0477
1626.00,0.0478
1625.00,0.0479
1624.00,0.0479
1623.00,0.0479
1622.00,0.0479
1621.00,0.0479
1620.00,0.0480
1619.00,0.0480
1618.00,0.0480
1617.00,0.0480
1616.00,0.0479
1615.00,0.0478
1614.00,0.0479
1613.00,0.0480
1612.00,0.0479
1611.00,0.0478
1610.00,0.0478
1609.00,0.0478
1608.00,0.0478
1607.00,0.0479
1606.00,0.0481
1605.00,0.0482
1604.00,0.0482
1603.00,0.0482
1602.00,0.0481
1601.00,0.0481
1600.00,0.0480
1599.00,0.0480
1598.00,0.0481
1597.00,0.0482
1596.00,0.0483
1595.00,0.0484
1594.00,0.0486
1593.00,0.0486
1592.00,0.0486
1591.00,0.0486
1590.00,0.0486
1589.00,0.0486
1588.00,0.0487
1587.00,0.0489
1586.00,0.0490
1585.00,0.0490
1584.00,0.0490
1583.00,0.0490
1582.00,0.0490
1581.00,0.0490
1580.00,0.0490
1579.00,0.0491
1578.00,0.0493
1577.00,0.0495
1576.00,0.0495
1575.00,0.0494
1574.00,0.0493
1573.00,0.0493
1572.00,0.0493
1571.00,0.0493
1570.00,0.0494
1569.00,0.0494
1568.00,0.0495
1567.00,0.0496
1566.00,0.0496
1565.00,0.0495
1564.00,0.0495
1563.00,0.0497
1562.00,0.0498
1561.00,0.0496
1560.00,0.0494
1559.00,0.0502
1558.00,0.0504
1557.00,0.0501
1556.00,0.0501
1555.00,0.0502
1554.00,0.0502
1553.00,0.0501
1552.00,0.0501
1551.00,0.0501
1550.00,0.0501
1549.00,0.0501
1548.00,0.0500
1547.00,0.0500
1546.00,0.0498
1545.00,0.0497
1544.00,0.0497
1543.00,0.0497
1542.00,0.0496
1541.00,0.0499
1540.00,0.0503
1539.00,0.0503
1538.00,0.0501
1537.00,0.0501
1536.00,0.0501
1535.00,0.0501
1534.00,0.0502
1533.00,0.0503
1532.00,0.0504
1531.00,0.0504
1530.00,0.0503
1529.00,0.0503
1528.00,0.0503
1527.00,0.0502
1526.00,0.0502
1525.00,0.0501
1524.00,0.0501
1523.00,0.0500
1522.00,0.0501
1521.00,0.0503
1520.00,0.0505
1519.00,0.0505
1518.00,0.0505
1517.00,0.0505
1516.00,0.0506
1515.00,0.0506
1514.00,0.0507
1513.00,0.0506
1512.00,0.0504
1511.00,0.0502
1510.00,0.0501
1509.00,0.0499
1508.00,0.0502
1507.00,0.0509
1506.00,0.0512
1505.00,0.0509
1504.00,0.0507
1503.00,0.0507
1502.00,0.0505
1501.00,0.0504
1500.00,0.0504
1499.00,0.0504
1498.00,0.0505
1497.00,0.0507
1496.00,0.0509
1495.00,0.0508
1494.00,0.0508
1493.00,0.0507
1492.00,0.0505
1491.00,0.0504
1490.00,0.0504
1489.00,0.0507
1488.00,0.0509
1487.00,0.0509
1486.00,0.0509
1485.00,0.0508
1484.00,0.0507
1483.00,0.0506
1482.00,0.0505
1481.00,0.0505
1480.00,0.0505
1479.00,0.0504
1478.00,0.0503
1477.00,0.0503
1476.00,0.0502
1475.00,0.0502
1474.00,0.0502
1473.00,0.0504
1472.00,0.0507
1471.00,0.0507
1470.00,0.0507
1469.00,0.0508
1468.00,0.0508
1467.00,0.0508
1466.00,0.0507
1465.00,0.0506
1464.00,0.0506
1463.00,0.0504
1462.00,0.0502
1461.00,0.0501
1460.00,0.0499
1459.00,0.0498
1458.00,0.0501
1457.00,0.0504
1456.00,0.0505
1455.00,0.0503
1454.00,0.0503
1453.00,0.0503
1452.00,0.0503
1451.00,0.0504
1450.00,0.0505
1449.00,0.0507
1448.00,0.0508
1447.00,0.0509
1446.00,0.0509
1445.00,0.0508
1444.00,0.0508
1443.00,0.0507
1442.00,0.0506
1441.00,0.0506
1440.00,0.0507
1439.00,0.0508
1438.00,0.0509
1437.00,0.0510
1436.00,0.0511
1435.00,0.0510
1434.00,0.0508
1433.00,0.0507
1432.00,0.0506
1431.00,0.0505
1430.00,0.0505
1429.00,0.0504
1428.00,0.0504
1427.00,0.0504
1426.00,0.0503
1425.00,0.0502
1424.00,0.0503
1423.00,0.0504
1422.00,0.0506
1421.00,0.0506
1420.00,0.0505
1419.00,0.0505
1418.00,0.0506
1417.00,0.0507
1416.00,0.0507
1415.00,0.0507
1414.00,0.0505
1413.00,0.0502
1412.00,0.0501
1411.00,0.0500
1410.00,0.0499
1409.00,0.0499
1408.00,0.0499
1407.00,0.0498
1406.00,0.0497
1405.00,0.0496
1404.00,0.0496
1403.00,0.0496
1402.00,0.0494
1401.00,0.0493
1400.00,0.0491
1399.00,0.0491
1398.00,0.0491
1397.00,0.0491
1396.00,0.0491
1395.00,0.0491
1394.00,0.0491
1393.00,0.0490
1392.00,0.0490
1391.00,0.0490
1390.00,0.0489
1389.00,0.0489
1388.00,0.0489
1387.00,0.0489
1386.00,0.0489
1385.00,0.0488
1384.00,0.0488
1383.00,0.0488
1382.00,0.0488
1381.00,0.0488
1380.00,0.0489
1379.00,0.0489
1378.00,0.0490
1377.00,0.0490
1376.00,0.0490
1375.00,0.0491
1374.00,0.0493
1373.00,0.0494
1372.00,0.0495
1371.00,0.0495
1370.00,0.0496
1369.00,0.0496
1368.00,0.0496
1367.00,0.0497
1366.00,0.0496
1365.00,0.0495
1364.00,0.0495
1363.00,0.0496
1362.00,0.0498
1361.00,0.0500
1360.00,0.0501
1359.00,0.0501
1358.00,0.0501
1357.00,0.0501
1356.00,0.0502
1355.00,0.0503
1354.00,0.0504
1353.00,0.0504
1352.00,0.0504
1351.00,0.0503
1350.00,0.0502
1349.00,0.0502
1348.00,0.0503
1347.00,0.0504
1346.00,0.0504
1345.00,0.0504
1344.00,0.0503
1343.00,0.0502
1342.00,0.0501
1341.00,0.0501
1340.00,0.0503
1339.00,0.0505
1338.00,0.0507
1337.00,0.0508
1336.00,0.0508
1335.00,0.0508
1334.00,0.0508
1333.00,0.0507
1332.00,0.0507
1331.00,0.0508
1330.00,0.0508
1329.00,0.0508
1328.00,0.0508
1327.00,0.0509
1326.00,0.0509
1325.00,0.0509
1324.00,0.0510
1323.00,0.0511
1322.00,0.0512
1321.00,0.0513
1320.00,0.0513
1319.00,0.0513
1318.00,0.0512
1317.00,0.0511
1316.00,0.0510
1315.00,0.0510
1314.00,0.0511
1313.00,0.0513
1312.00,0.0515
1311.00,0.0516
1310.00,0.0516
1309.00,0.0516
1308.00,0.0516
1307.00,0.0516
1306.00,0.0516
1305.00,0.0516
1304.00,0.0517
1303.00,0.0518
1302.00,0.0518
1301.00,0.0518
1300.00,0.0518
1299.00,0.0518
1298.00,0.0518
1297.00,0.0518
1296.00,0.0518
1295.00,0.0518
1294.00,0.0519
1293.00,0.0519
1292.00,0.0520
1291.00,0.0520
1290.00,0.0521
1289.00,0.0522
1288.00,0.0522
1287.00,0.0522
1286.00,0.0522
1285.00,0.0522
1284.00,0.0523
1283.00,0.0524
1282.00,0.0524
1281.00,0.0524
1280.00,0.0523
1279.00,0.0523
1278.00,0.0522
1277.00,0.0522
1276.00,0.0523
1275.00,0.0523
1274.00,0.0524
1273.00,0.0524
1272.00,0.0523
1271.00,0.0523
1270.00,0.0523
1269.00,0.0524
1268.00,0.0524
1267.00,0.0525
1266.00,0.0526
1265.00,0.0526
1264.00,0.0526
1263.00,0.0526
1262.00,0.0526
1261.00,0.0526
1260.00,0.0527
1259.00,0.0528
1258.00,0.0529
1257.00,0.0529
1256.00,0.0528
1255.00,0.0528
1254.00,0.0528
1253.00,0.0530
1252.00,0.0531
1251.00,0.0531
1250.00,0.0532
1249.00,0.0532
1248.00,0.0533
1247.00,0.0534
1246.00,0.0535
1245.00,0.0536
1244.00,0.0536
1243.00,0.0537
1242.00,0.0538
1241.00,0.0538
1240.00,0.0538
1239.00,0.0538
1238.00,0.0539
1237.00,0.0541
1236.00,0.0542
1235.00,0.0543
1234.00,0.0543
1233.00,0.0543
1232.00,0.0544
1231.00,0.0544
1230.00,0.0544
1229.00,0.0545
1228.00,0.0546
1227.00,0.0546
1226.00,0.0547
1225.00,0.0547
1224.00,0.0547
1223.00,0.0547
1222.00,0.0548
1221.00,0.0549
1220.00,0.0551
1219.00,0.0551
1218.00,0.0552
1217.00,0.0552
1216.00,0.0552
1215.00,0.0552
1214.00,0.0552
1213.00,0.0552
1212.00,0.0553
1211.00,0.0555
1210.00,0.0556
1209.00,0.0557
1208.00,0.0557
1207.00,0.0557
1206.00,0.0557
1205.00,0.0556
1204.00,0.0557
1203.00,0.0558
1202.00,0.0558
1201.00,0.0559
1200.00,0.0559
1199.00,0.0559
1198.00,0.0559
1197.00,0.0559
1196.00,0.0559
1195.00,0.0560
1194.00,0.0560
1193.00,0.0560
1192.00,0.0560
1191.00,0.0560
1190.00,0.0559
1189.00,0.0559
1188.00,0.0559
1187.00,0.0560
1186.00,0.0560
1185.00,0.0560
1184.00,0.0560
1183.00,0.0559
1182.00,0.0558
1181.00,0.0557
1180.00,0.0557
1179.00,0.0557
1178.00,0.0557
1177.00,0.0557
1176.00,0.0557
1175.00,0.0557
1174.00,0.0558
1173.00,0.0557
1172.00,0.0557
1171.00,0.0556
1170.00,0.0556
1169.00,0.0556
1168.00,0.0557
1167.00,0.0557
1166.00,0.0557
1165.00,0.0557
1164.00,0.0557
1163.00,0.0557
1162.00,0.0557
1161.00,0.0557
1160.00,0.0557
1159.00,0.0557
1158.00,0.0557
1157.00,0.0557
1156.00,0.0557
1155.00,0.0559
1154.00,0.0559
1153.00,0.0559
1152.00,0.0559
1151.00,0.0558
1150.00,0.0558
1149.00,0.0558
1148.00,0.0558
1147.00,0.0558
1146.00,0.0559
1145.00,0.0559
1144.00,0.0560
1143.00,0.0561
1142.00,0.0563
1141.00,0.0564
1140.00,0.0564
1139.00,0.0564
1138.00,0.0565
1137.00,0.0565
1136.00,0.0567
1135.00,0.0569
1134.00,0.0570
1133.00,0.0571
1132.00,0.0571
1131.00,0.0571
1130.00,0.0571
1129.00,0.0572
1128.00,0.0574
1127.00,0.0575
1126.00,0.0574
1125.00,0.0572
1124.00,0.0572
1123.00,0.0574
1122.00,0.0579
1121.00,0.0583
1120.00,0.0586
1119.00,0.0588
1118.00,0.0589
1117.00,0.0589
1116.00,0.0590
1115.00,0.0591
1114.00,0.0592
1113.00,0.0591
1112.00,0.0591
1111.00,0.0590
1110.00,0.0591
1109.00,0.0592
1108.00,0.0594
1107.00,0.0595
1106.00,0.0596
1105.00,0.0597
1104.00,0.0597
1103.00,0.0598
1102.00,0.0600
1101.00,0.0602
1100.00,0.0603
1099.00,0.0603
1098.00,0.0604
1097.00,0.0604
1096.00,0.0604
1095.00,0.0604
1094.00,0.0604
1093.00,0.0605
1092.00,0.0606
1091.00,0.0606
1090.00,0.0605
1089.00,0.0603
1088.00,0.0602
1087.00,0.0603
1086.00,0.0604
1085.00,0.0605
1084.00,0.0606
1083.00,0.0607
1082.00,0.0608
1081.00,0.0610
1080.00,0.0612
1079.00,0.0614
1078.00,0.0617
1077.00,0.0618
1076.00,0.0618
1075.00,0.0616
1074.00,0.0613
1073.00,0.0612
1072.00,0.0612
1071.00,0.0613
1070.00,0.0613
1069.00,0.0612
1068.00,0.0612
1067.00,0.0614
1066.00,0.0616
1065.00,0.0618
1064.00,0.0621
1063.00,0.0622
1062.00,0.0622
1061.00,0.0620
1060.00,0.0618
1059.00,0.0617
1058.00,0.0618
1057.00,0.0621
1056.00,0.0624
1055.00,0.0626
1054.00,0.0628
1053.00,0.0629
1052.00,0.0630
1051.00,0.0631
1050.00,0.0632
1049.00,0.0636
1048.00,0.0639
1047.00,0.0640
1046.00,0.0640
1045.00,0.0640
1044.00,0.0641
1043.00,0.0641
1042.00,0.0641
1041.00,0.0641
1040.00,0.0641
1039.00,0.0643
1038.00,0.0645
1037.00,0.0647
1036.00,0.0648
1035.00,0.0648
1034.00,0.0649
1033.00,0.0650
1032.00,0.0650
1031.00,0.0650
1030.00,0.0649
1029.00,0.0648
1028.00,0.0647
1027.00,0.0647
1026.00,0.0647
1025.00,0.0647
1024.00,0.0646
1023.00,0.0645
1022.00,0.0643
1021.00,0.0643
1020.00,0.0643
1019.00,0.0643
1018.00,0.0643
1017.00,0.0644
1016.00,0.0645
1015.00,0.0646
1014.00,0.0647
1013.00,0.0647
1012.00,0.0647
1011.00,0.0648
1010.00,0.0649
1009.00,0.0650
1008.00,0.0651
1007.00,0.0651
1006.00,0.0651
1005.00,0.0652
1004.00,0.0653
1003.00,0.0655
1002.00,0.0655
1001.00,0.0654
1000.00,0.0652
999.00,0.0649
998.00,0.0646
997.00,0.0645
996.00,0.0646
995.00,0.0646
994.00,0.0646
993.00,0.0644
992.00,0.0641
991.00,0.0639
990.00,0.0638
989.00,0.0637
988.00,0.0637
987.00,0.0637
986.00,0.0638
985.00,0.0638
984.00,0.0636
983.00,0.0633
982.00,0.0631
981.00,0.0630
980.00,0.0631
979.00,0.0631
978.00,0.0630
977.00,0.0628
976.00,0.0625
975.00,0.0623
974.00,0.0622
973.00,0.0623
972.00,0.0623
971.00,0.0623
970.00,0.0622
969.00,0.0619
968.00,0.0618
967.00,0.0616
966.00,0.0615
965.00,0.0614
964.00,0.0614
963.00,0.0614
962.00,0.0614
961.00,0.0615
960.00,0.0614
959.00,0.0613
958.00,0.0613
957.00,0.0612
956.00,0.0612
955.00,0.0612
954.00,0.0611
953.00,0.0611
952.00,0.0611
951.00,0.0612
950.00,0.0614
949.00,0.0615
948.00,0.0615
947.00,0.0614
946.00,0.0613
945.00,0.0612
944.00,0.0612
943.00,0.0613
942.00,0.0614
941.00,0.0614
940.00,0.0616
939.00,0.0617
938.00,0.0618
937.00,0.0618
936.00,0.0617
935.00,0.0616
934.00,0.0617
933.00,0.0618
932.00,0.0621
931.00,0.0623
930.00,0.0625
929.00,0.0626
928.00,0.0628
927.00,0.0629
926.00,0.0630
925.00,0.0629
924.00,0.0629
923.00,0.0628
922.00,0.0628
921.00,0.0628
920.00,0.0628
919.00,0.0629
918.00,0.0630
917.00,0.0632
916.00,0.0634
915.00,0.0636
914.00,0.0637
913.00,0.0637
912.00,0.0636
911.00,0.0636
910.00,0.0634
909.00,0.0631
908.00,0.0628
907.00,0.0626
906.00,0.0626
905.00,0.0627
904.00,0.0631
903.00,0.0634
902.00,0.0636
901.00,0.0636
900.00,0.0634
899.00,0.0632
898.00,0.0631
897.00,0.0632
896.00,0.0632
895.00,0.0631
894.00,0.0630
893.00,0.0628
892.00,0.0626
891.00,0.0626
890.00,0.0626
889.00,0.0627
888.00,0.0627
887.00,0.0626
886.00,0.0624
885.00,0.0623
884.00,0.0624
883.00,0.0626
882.00,0.0628
881.00,0.0628
880.00,0.0626
879.00,0.0624
878.00,0.0621
877.00,0.0619
876.00,0.0618
875.00,0.0617
874.00,0.0617
873.00,0.0617
872.00,0.0616
871.00,0.0616
870.00,0.0617
869.00,0.0617
868.00,0.0617
867.00,0.0615
866.00,0.0614
865.00,0.0614
864.00,0.0615
863.00,0.0617
862.00,0.0618
861.00,0.0618
860.00,0.0617
859.00,0.0615
858.00,0.0612
857.00,0.0610
856.00,0.0610
855.00,0.0611
854.00,0.0613
853.00,0.0614
852.00,0.0614
851.00,0.0613
850.00,0.0613
849.00,0.0614
848.00,0.0615
847.00,0.0616
846.00,0.0619
845.00,0.0621
844.00,0.0622
843.00,0.0621
842.00,0.0617
841.00,0.0613
840.00,0.0610
839.00,0.0608
838.00,0.0607
837.00,0.0608
836.00,0.0608
835.00,0.0608
834.00,0.0606
833.00,0.0606
832.00,0.0606
831.00,0.0606
830.00,0.0606
829.00,0.0605
828.00,0.0604
827.00,0.0604
826.00,0.0605
825.00,0.0606
824.00,0.0608
823.00,0.0610
822.00,0.0611
821.00,0.0612
820.00,0.0612
819.00,0.0612
818.00,0.0610
817.00,0.0608
816.00,0.0605
815.00,0.0604
814.00,0.0605
813.00,0.0607
812.00,0.0608
811.00,0.0609
810.00,0.0608
809.00,0.0608
808.00,0.0608
807.00,0.0608
806.00,0.0608
805.00,0.0608
804.00,0.0608
803.00,0.0607
802.00,0.0607
801.00,0.0610
800.00,0.0614
799.00,0.0618
798.00,0.0619
797.00,0.0616
796.00,0.0613
795.00,0.0610
794.00,0.0609
793.00,0.0610
792.00,0.0612
791.00,0.0615
790.00,0.0618
789.00,0.0619
788.00,0.0617
787.00,0.0616
786.00,0.0615
785.00,0.0617
784.00,0.0618
783.00,0.0620
782.00,0.0620
781.00,0.0618
780.00,0.0616
779.00,0.0614
778.00,0.0614
777.00,0.0615
776.00,0.0617
775.00,0.0617
774.00,0.0615
773.00,0.0613
772.00,0.0611
771.00,0.0610
770.00,0.0610
769.00,0.0610
768.00,0.0610
767.00,0.0610
766.00,0.0610
765.00,0.0611
764.00,0.0611
763.00,0.0611
762.00,0.0609
761.00,0.0607
760.00,0.0606
759.00,0.0607
758.00,0.0610
757.00,0.0613
756.00,0.0615
755.00,0.0615
754.00,0.0613
753.00,0.0612
752.00,0.0612
751.00,0.0614
750.00,0.0617
749.00,0.0620
748.00,0.0621
747.00,0.0622
746.00,0.0621
745.00,0.0618
744.00,0.0615
743.00,0.0614
742.00,0.0613
741.00,0.0613
740.00,0.0612
739.00,0.0608
738.00,0.0604
737.00,0.0602
736.00,0.0602
735.00,0.0603
734.00,0.0604
733.00,0.0605
732.00,0.0606
731.00,0.0606
730.00,0.0607
729.00,0.0607
728.00,0.0609
727.00,0.0613
726.00,0.0615
725.00,0.0616
724.00,0.0614
723.00,0.0611
722.00,0.0609
721.00,0.0610
720.00,0.0612
719.00,0.0613
718.00,0.0612
717.00,0.0610
716.00,0.0607
715.00,0.0605
714.00,0.0606
713.00,0.0609
712.00,0.0613
711.00,0.0616
710.00,0.0616
709.00,0.0614
708.00,0.0613
707.00,0.0613
706.00,0.0616
705.00,0.0620
704.00,0.0625
703.00,0.0628
702.00,0.0627
701.00,0.0623
700.00,0.0621
699.00,0.0621
698.00,0.0624
697.00,0.0628
696.00,0.0631
695.00,0.0632
694.00,0.0632
693.00,0.0633
692.00,0.0634
691.00,0.0635
690.00,0.0635
689.00,0.0636
688.00,0.0637
687.00,0.0636
686.00,0.0634
685.00,0.0631
684.00,0.0628
683.00,0.0625
682.00,0.0623
681.00,0.0622
680.00,0.0622
679.00,0.0622
678.00,0.0623
677.00,0.0624
676.00,0.0626
675.00,0.0627
674.00,0.0629
673.00,0.0629
672.00,0.0629
671.00,0.0630
670.00,0.0631
669.00,0.0634
668.00,0.0640
667.00,0.0646
666.00,0.0646
665.00,0.0644
664.00,0.0641
663.00,0.0637
662.00,0.0630
661.00,0.0621
660.00,0.0613
659.00,0.0610
658.00,0.0613
657.00,0.0619
656.00,0.0623
655.00,0.0625
654.00,0.0613
653.00,0.0605
652.00,0.0605
651.00,0.0606
650.00,0.0610
