Created as New Dataset,Monday, April 03 2023
cm-1,A
4000.00,0.0383
3999.00,0.0382
3998.00,0.0382
3997.00,0.0381
3996.00,0.0380
3995.00,0.0380
3994.00,0.0380
3993.00,0.0379
3992.00,0.0380
3991.00,0.0380
3990.00,0.0380
3989.00,0.0379
3988.00,0.0379
3987.00,0.0378
3986.00,0.0378
3985.00,0.0379
3984.00,0.0379
3983.00,0.0380
3982.00,0.0380
3981.00,0.0380
3980.00,0.0379
3979.00,0.0379
3978.00,0.0379
3977.00,0.0378
3976.00,0.0377
3975.00,0.0377
3974.00,0.0376
3973.00,0.0377
3972.00,0.0377
3971.00,0.0378
3970.00,0.0378
3969.00,0.0378
3968.00,0.0377
3967.00,0.0376
3966.00,0.0376
3965.00,0.0376
3964.00,0.0376
3963.00,0.0377
3962.00,0.0377
3961.00,0.0377
3960.00,0.0376
3959.00,0.0376
3958.00,0.0376
3957.00,0.0376
3956.00,0.0376
3955.00,0.0375
3954.00,0.0374
3953.00,0.0373
3952.00,0.0373
3951.00,0.0373
3950.00,0.0373
3949.00,0.0374
3948.00,0.0373
3947.00,0.0372
3946.00,0.0371
3945.00,0.0371
3944.00,0.0371
3943.00,0.0371
3942.00,0.0370
3941.00,0.0370
3940.00,0.0371
3939.00,0.0373
3938.00,0.0374
3937.00,0.0373
3936.00,0.0372
3935.00,0.0370
3934.00,0.0370
3933.00,0.0369
3932.00,0.0369
3931.00,0.0369
3930.00,0.0369
3929.00,0.0368
3928.00,0.0368
3927.00,0.0369
3926.00,0.0369
3925.00,0.0369
3924.00,0.0368
3923.00,0.0367
3922.00,0.0366
3921.00,0.0365
3920.00,0.0366
3919.00,0.0367
3918.00,0.0368
3917.00,0.0370
3916.00,0.0370
3915.00,0.0370
3914.00,0.0371
3913.00,0.0372
3912.00,0.0373
3911.00,0.0373
3910.00,0.0371
3909.00,0.0368
3908.00,0.0365
3907.00,0.0361
3906.00,0.0358
3905.00,0.0356
3904.00,0.0354
3903.00,0.0352
3902.00,0.0353
3901.00,0.0356
3900.00,0.0360
3899.00,0.0362
3898.00,0.0363
3897.00,0.0363
3896.00,0.0363
3895.00,0.0363
3894.00,0.0363
3893.00,0.0364
3892.00,0.0365
3891.00,0.0364
3890.00,0.0359
3889.00,0.0356
3888.00,0.0357
3887.00,0.0359
3886.00,0.0361
3885.00,0.0358
3884.00,0.0355
3883.00,0.0354
3882.00,0.0357
3881.00,0.0360
3880.00,0.0361
3879.00,0.0359
3878.00,0.0358
3877.00,0.0359
3876.00,0.0362
3875.00,0.0361
3874.00,0.0357
3873.00,0.0352
3872.00,0.0351
3871.00,0.0353
3870.00,0.0355
3869.00,0.0353
3868.00,0.0350
3867.00,0.0351
3866.00,0.0355
3865.00,0.0359
3864.00,0.0360
3863.00,0.0360
3862.00,0.0361
3861.00,0.0361
3860.00,0.0361
3859.00,0.0358
3858.00,0.0352
3857.00,0.0344
3856.00,0.0336
3855.00,0.0336
3854.00,0.0344
3853.00,0.0348
3852.00,0.0346
3851.00,0.0347
3850.00,0.0355
3849.00,0.0361
3848.00,0.0363
3847.00,0.0362
3846.00,0.0361
3845.00,0.0359
3844.00,0.0356
3843.00,0.0352
3842.00,0.0349
3841.00,0.0347
3840.00,0.0347
3839.00,0.0349
3838.00,0.0350
3837.00,0.0349
3836.00,0.0349
3835.00,0.0351
3834.00,0.0355
3833.00,0.0359
3832.00,0.0361
3831.00,0.0362
3830.00,0.0361
3829.00,0.0361
3828.00,0.0361
3827.00,0.0361
3826.00,0.0357
3825.00,0.0352
3824.00,0.0349
3823.00,0.0350
3822.00,0.0353
3821.00,0.0353
3820.00,0.0348
3819.00,0.0345
3818.00,0.0348
3817.00,0.0355
3816.00,0.0360
3815.00,0.0360
3814.00,0.0359
3813.00,0.0361
3812.00,0.0363
3811.00,0.0361
3810.00,0.0358
3809.00,0.0356
3808.00,0.0357
3807.00,0.0357
3806.00,0.0353
3805.00,0.0350
3804.00,0.0350
3803.00,0.0354
3802.00,0.0358
3801.00,0.0356
3800.00,0.0352
3799.00,0.0351
3798.00,0.0355
3797.00,0.0360
3796.00,0.0361
3795.00,0.0361
3794.00,0.0362
3793.00,0.0364
3792.00,0.0365
3791.00,0.0366
3790.00,0.0366
3789.00,0.0365
3788.00,0.0364
3787.00,0.0364
3786.00,0.0365
3785.00,0.0364
3784.00,0.0362
3783.00,0.0360
3782.00,0.0359
3781.00,0.0360
3780.00,0.0361
3779.00,0.0362
3778.00,0.0361
3777.00,0.0361
3776.00,0.0362
3775.00,0.0362
3774.00,0.0360
3773.00,0.0358
3772.00,0.0357
3771.00,0.0357
3770.00,0.0356
3769.00,0.0353
3768.00,0.0352
3767.00,0.0354
3766.00,0.0357
3765.00,0.0357
3764.00,0.0356
3763.00,0.0354
3762.00,0.0354
3761.00,0.0355
3760.00,0.0355
3759.00,0.0354
3758.00,0.0352
3757.00,0.0349
3756.00,0.0345
3755.00,0.0340
3754.00,0.0336
3753.00,0.0334
3752.00,0.0334
3751.00,0.0337
3750.00,0.0337
3749.00,0.0334
3748.00,0.0332
3747.00,0.0334
3746.00,0.0339
3745.00,0.0344
3744.00,0.0344
3743.00,0.0339
3742.00,0.0339
3741.00,0.0344
3740.00,0.0346
3739.00,0.0343
3738.00,0.0340
3737.00,0.0338
3736.00,0.0338
3735.00,0.0337
3734.00,0.0336
3733.00,0.0339
3732.00,0.0343
3731.00,0.0346
3730.00,0.0348
3729.00,0.0350
3728.00,0.0351
3727.00,0.0352
3726.00,0.0350
3725.00,0.0348
3724.00,0.0348
3723.00,0.0349
3722.00,0.0351
3721.00,0.0353
3720.00,0.0355
3719.00,0.0357
3718.00,0.0357
3717.00,0.0355
3716.00,0.0352
3715.00,0.0348
3714.00,0.0347
3713.00,0.0348
3712.00,0.0351
3711.00,0.0353
3710.00,0.0353
3709.00,0.0355
3708.00,0.0358
3707.00,0.0363
3706.00,0.0366
3705.00,0.0368
3704.00,0.0369
3703.00,0.0370
3702.00,0.0371
3701.00,0.0372
3700.00,0.0372
3699.00,0.0374
3698.00,0.0377
3697.00,0.0378
3696.00,0.0377
3695.00,0.0374
3694.00,0.0370
3693.00,0.0366
3692.00,0.0363
3691.00,0.0363
3690.00,0.0365
3689.00,0.0367
3688.00,0.0367
3687.00,0.0366
3686.00,0.0369
3685.00,0.0372
3684.00,0.0374
3683.00,0.0372
3682.00,0.0368
3681.00,0.0363
3680.00,0.0357
3679.00,0.0349
3678.00,0.0343
3677.00,0.0342
3676.00,0.0346
3675.00,0.0344
3674.00,0.0339
3673.00,0.0339
3672.00,0.0345
3671.00,0.0354
3670.00,0.0360
3669.00,0.0362
3668.00,0.0361
3667.00,0.0364
3666.00,0.0369
3665.00,0.0372
3664.00,0.0374
3663.00,0.0375
3662.00,0.0375
3661.00,0.0374
3660.00,0.0373
3659.00,0.0373
3658.00,0.0375
3657.00,0.0378
3656.00,0.0379
3655.00,0.0375
3654.00,0.0371
3653.00,0.0368
3652.00,0.0365
3651.00,0.0363
3650.00,0.0365
3649.00,0.0368
3648.00,0.0369
3647.00,0.0370
3646.00,0.0374
3645.00,0.0379
3644.00,0.0385
3643.00,0.0388
3642.00,0.0390
3641.00,0.0391
3640.00,0.0391
3639.00,0.0392
3638.00,0.0392
3637.00,0.0392
3636.00,0.0391
3635.00,0.0391
3634.00,0.0389
3633.00,0.0384
3632.00,0.0379
3631.00,0.0378
3630.00,0.0383
3629.00,0.0390
3628.00,0.0392
3627.00,0.0393
3626.00,0.0397
3625.00,0.0403
3624.00,0.0406
3623.00,0.0406
3622.00,0.0405
3621.00,0.0405
3620.00,0.0406
3619.00,0.0406
3618.00,0.0404
3617.00,0.0401
3616.00,0.0401
3615.00,0.0401
3614.00,0.0401
3613.00,0.0400
3612.00,0.0397
3611.00,0.0396
3610.00,0.0398
3609.00,0.0403
3608.00,0.0407
3607.00,0.0409
3606.00,0.0410
3605.00,0.0410
3604.00,0.0410
3603.00,0.0411
3602.00,0.0413
3601.00,0.0414
3600.00,0.0414
3599.00,0.0413
3598.00,0.0412
3597.00,0.0412
3596.00,0.0413
3595.00,0.0413
3594.00,0.0414
3593.00,0.0413
3592.00,0.0411
3591.00,0.0409
3590.00,0.0409
3589.00,0.0410
3588.00,0.0412
3587.00,0.0414
3586.00,0.0414
3585.00,0.0416
3584.00,0.0419
3583.00,0.0422
3582.00,0.0424
3581.00,0.0425
3580.00,0.0426
3579.00,0.0426
3578.00,0.0427
3577.00,0.0427
3576.00,0.0428
3575.00,0.0429
3574.00,0.0429
3573.00,0.0429
3572.00,0.0426
3571.00,0.0423
3570.00,0.0419
3569.00,0.0418
3568.00,0.0419
3567.00,0.0422
3566.00,0.0424
3565.00,0.0424
3564.00,0.0426
3563.00,0.0429
3562.00,0.0432
3561.00,0.0435
3560.00,0.0436
3559.00,0.0438
3558.00,0.0439
3557.00,0.0440
3556.00,0.0441
3555.00,0.0441
3554.00,0.0441
3553.00,0.0442
3552.00,0.0442
3551.00,0.0442
3550.00,0.0442
3549.00,0.0442
3548.00,0.0443
3547.00,0.0444
3546.00,0.0445
3545.00,0.0446
3544.00,0.0447
3543.00,0.0448
3542.00,0.0449
3541.00,0.0450
3540.00,0.0451
3539.00,0.0450
3538.00,0.0450
3537.00,0.0450
3536.00,0.0451
3535.00,0.0452
3534.00,0.0453
3533.00,0.0454
3532.00,0.0454
3531.00,0.0454
3530.00,0.0453
3529.00,0.0452
3528.00,0.0451
3527.00,0.0450
3526.00,0.0451
3525.00,0.0454
3524.00,0.0457
3523.00,0.0459
3522.00,0.0460
3521.00,0.0459
3520.00,0.0459
3519.00,0.0459
3518.00,0.0460
3517.00,0.0460
3516.00,0.0461
3515.00,0.0461
3514.00,0.0462
3513.00,0.0463
3512.00,0.0464
3511.00,0.0465
3510.00,0.0465
3509.00,0.0465
3508.00,0.0464
3507.00,0.0464
3506.00,0.0464
3505.00,0.0466
3504.00,0.0467
3503.00,0.0469
3502.00,0.0469
3501.00,0.0469
3500.00,0.0470
3499.00,0.0471
3498.00,0.0472
3497.00,0.0474
3496.00,0.0474
3495.00,0.0474
3494.00,0.0474
3493.00,0.0474
3492.00,0.0474
3491.00,0.0475
3490.00,0.0475
3489.00,0.0475
3488.00,0.0476
3487.00,0.0476
3486.00,0.0476
3485.00,0.0476
3484.00,0.0476
3483.00,0.0476
3482.00,0.0477
3481.00,0.0477
3480.00,0.0478
3479.00,0.0478
3478.00,0.0479
3477.00,0.0480
3476.00,0.0481
3475.00,0.0483
3474.00,0.0483
3473.00,0.0484
3472.00,0.0484
3471.00,0.0484
3470.00,0.0485
3469.00,0.0485
3468.00,0.0486
3467.00,0.0486
3466.00,0.0487
3465.00,0.0488
3464.00,0.0488
3463.00,0.0487
3462.00,0.0486
3461.00,0.0486
3460.00,0.0487
3459.00,0.0488
3458.00,0.0490
3457.00,0.0491
3456.00,0.0491
3455.00,0.0490
3454.00,0.0490
3453.00,0.0490
3452.00,0.0491
3451.00,0.0491
3450.00,0.0491
3449.00,0.0492
3448.00,0.0492
3447.00,0.0493
3446.00,0.0493
3445.00,0.0493
3444.00,0.0494
3443.00,0.0495
3442.00,0.0496
3441.00,0.0495
3440.00,0.0495
3439.00,0.0495
3438.00,0.0496
3437.00,0.0496
3436.00,0.0497
3435.00,0.0497
3434.00,0.0496
3433.00,0.0496
3432.00,0.0497
3431.00,0.0498
3430.00,0.0499
3429.00,0.0499
3428.00,0.0499
3427.00,0.0499
3426.00,0.0499
3425.00,0.0500
3424.00,0.0501
3423.00,0.0502
3422.00,0.0502
3421.00,0.0502
3420.00,0.0502
3419.00,0.0503
3418.00,0.0503
3417.00,0.0503
3416.00,0.0503
3415.00,0.0503
3414.00,0.0503
3413.00,0.0504
3412.00,0.0504
3411.00,0.0505
3410.00,0.0505
3409.00,0.0506
3408.00,0.0506
3407.00,0.0507
3406.00,0.0507
3405.00,0.0506
3404.00,0.0506
3403.00,0.0506
3402.00,0.0506
3401.00,0.0507
3400.00,0.0507
3399.00,0.0508
3398.00,0.0508
3397.00,0.0508
3396.00,0.0508
3395.00,0.0507
3394.00,0.0508
3393.00,0.0508
3392.00,0.0509
3391.00,0.0510
3390.00,0.0511
3389.00,0.0511
3388.00,0.0511
3387.00,0.0510
3386.00,0.0510
3385.00,0.0510
3384.00,0.0511
3383.00,0.0512
3382.00,0.0512
3381.00,0.0512
3380.00,0.0513
3379.00,0.0513
3378.00,0.0514
3377.00,0.0513
3376.00,0.0513
3375.00,0.0513
3374.00,0.0513
3373.00,0.0512
3372.00,0.0512
3371.00,0.0511
3370.00,0.0511
3369.00,0.0512
3368.00,0.0512
3367.00,0.0512
3366.00,0.0512
3365.00,0.0511
3364.00,0.0511
3363.00,0.0512
3362.00,0.0513
3361.00,0.0514
3360.00,0.0515
3359.00,0.0515
3358.00,0.0514
3357.00,0.0514
3356.00,0.0514
3355.00,0.0515
3354.00,0.0515
3353.00,0.0515
3352.00,0.0516
3351.00,0.0516
3350.00,0.0516
3349.00,0.0516
3348.00,0.0516
3347.00,0.0515
3346.00,0.0515
3345.00,0.0514
3344.00,0.0514
3343.00,0.0514
3342.00,0.0514
3341.00,0.0515
3340.00,0.0515
3339.00,0.0515
3338.00,0.0516
3337.00,0.0516
3336.00,0.0516
3335.00,0.0516
3334.00,0.0516
3333.00,0.0515
3332.00,0.0515
3331.00,0.0515
3330.00,0.0514
3329.00,0.0514
3328.00,0.0514
3327.00,0.0514
3326.00,0.0515
3325.00,0.0516
3324.00,0.0516
3323.00,0.0517
3322.00,0.0516
3321.00,0.0516
3320.00,0.0515
3319.00,0.0515
3318.00,0.0515
3317.00,0.0515
3316.00,0.0515
3315.00,0.0515
3314.00,0.0514
3313.00,0.0514
3312.00,0.0514
3311.00,0.0514
3310.00,0.0515
3309.00,0.0516
3308.00,0.0517
3307.00,0.0517
3306.00,0.0517
3305.00,0.0516
3304.00,0.0516
3303.00,0.0516
3302.00,0.0516
3301.00,0.0515
3300.00,0.0515
3299.00,0.0514
3298.00,0.0514
3297.00,0.0514
3296.00,0.0515
3295.00,0.0516
3294.00,0.0516
3293.00,0.0516
3292.00,0.0515
3291.00,0.0515
3290.00,0.0515
3289.00,0.0515
3288.00,0.0516
3287.00,0.0516
3286.00,0.0516
3285.00,0.0517
3284.00,0.0517
3283.00,0.0517
3282.00,0.0517
3281.00,0.0516
3280.00,0.0515
3279.00,0.0515
3278.00,0.0515
3277.00,0.0515
3276.00,0.0515
3275.00,0.0516
3274.00,0.0516
3273.00,0.0516
3272.00,0.0516
3271.00,0.0517
3270.00,0.0518
3269.00,0.0518
3268.00,0.0518
3267.00,0.0518
3266.00,0.0518
3265.00,0.0517
3264.00,0.0516
3263.00,0.0515
3262.00,0.0515
3261.00,0.0516
3260.00,0.0516
3259.00,0.0517
3258.00,0.0516
3257.00,0.0516
3256.00,0.0515
3255.00,0.0515
3254.00,0.0515
3253.00,0.0516
3252.00,0.0516
3251.00,0.0516
3250.00,0.0516
3249.00,0.0516
3248.00,0.0516
3247.00,0.0515
3246.00,0.0516
3245.00,0.0516
3244.00,0.0516
3243.00,0.0516
3242.00,0.0516
3241.00,0.0516
3240.00,0.0516
3239.00,0.0517
3238.00,0.0517
3237.00,0.0518
3236.00,0.0519
3235.00,0.0519
3234.00,0.0519
3233.00,0.0519
3232.00,0.0519
3231.00,0.0518
3230.00,0.0517
3229.00,0.0516
3228.00,0.0516
3227.00,0.0515
3226.00,0.0516
3225.00,0.0516
3224.00,0.0516
3223.00,0.0516
3222.00,0.0516
3221.00,0.0516
3220.00,0.0516
3219.00,0.0516
3218.00,0.0516
3217.00,0.0516
3216.00,0.0516
3215.00,0.0517
3214.00,0.0517
3213.00,0.0516
3212.00,0.0516
3211.00,0.0515
3210.00,0.0515
3209.00,0.0516
3208.00,0.0516
3207.00,0.0516
3206.00,0.0516
3205.00,0.0516
3204.00,0.0516
3203.00,0.0516
3202.00,0.0516
3201.00,0.0516
3200.00,0.0516
3199.00,0.0516
3198.00,0.0516
3197.00,0.0516
3196.00,0.0516
3195.00,0.0516
3194.00,0.0516
3193.00,0.0515
3192.00,0.0515
3191.00,0.0514
3190.00,0.0513
3189.00,0.0512
3188.00,0.0511
3187.00,0.0511
3186.00,0.0511
3185.00,0.0512
3184.00,0.0512
3183.00,0.0513
3182.00,0.0514
3181.00,0.0514
3180.00,0.0513
3179.00,0.0512
3178.00,0.0511
3177.00,0.0510
3176.00,0.0509
3175.00,0.0510
3174.00,0.0510
3173.00,0.0510
3172.00,0.0510
3171.00,0.0510
3170.00,0.0510
3169.00,0.0510
3168.00,0.0510
3167.00,0.0510
3166.00,0.0511
3165.00,0.0511
3164.00,0.0512
3163.00,0.0512
3162.00,0.0511
3161.00,0.0511
3160.00,0.0510
3159.00,0.0509
3158.00,0.0508
3157.00,0.0507
3156.00,0.0507
3155.00,0.0507
3154.00,0.0508
3153.00,0.0508
3152.00,0.0508
3151.00,0.0508
3150.00,0.0508
3149.00,0.0507
3148.00,0.0507
3147.00,0.0506
3146.00,0.0506
3145.00,0.0505
3144.00,0.0505
3143.00,0.0505
3142.00,0.0505
3141.00,0.0505
3140.00,0.0505
3139.00,0.0505
3138.00,0.0505
3137.00,0.0505
3136.00,0.0506
3135.00,0.0505
3134.00,0.0504
3133.00,0.0504
3132.00,0.0503
3131.00,0.0503
3130.00,0.0503
3129.00,0.0503
3128.00,0.0503
3127.00,0.0503
3126.00,0.0503
3125.00,0.0503
3124.00,0.0502
3123.00,0.0502
3122.00,0.0501
3121.00,0.0501
3120.00,0.0501
3119.00,0.0501
3118.00,0.0501
3117.00,0.0501
3116.00,0.0501
3115.00,0.0501
3114.00,0.0501
3113.00,0.0500
3112.00,0.0500
3111.00,0.0500
3110.00,0.0499
3109.00,0.0499
3108.00,0.0498
3107.00,0.0499
3106.00,0.0499
3105.00,0.0500
3104.00,0.0500
3103.00,0.0499
3102.00,0.0499
3101.00,0.0498
3100.00,0.0497
3099.00,0.0497
3098.00,0.0497
3097.00,0.0497
3096.00,0.0498
3095.00,0.0498
3094.00,0.0499
3093.00,0.0499
3092.00,0.0499
3091.00,0.0499
3090.00,0.0498
3089.00,0.0496
3088.00,0.0495
3087.00,0.0495
3086.00,0.0495
3085.00,0.0496
3084.00,0.0497
3083.00,0.0497
3082.00,0.0496
3081.00,0.0496
3080.00,0.0496
3079.00,0.0496
3078.00,0.0496
3077.00,0.0496
3076.00,0.0496
3075.00,0.0496
3074.00,0.0496
3073.00,0.0496
3072.00,0.0495
3071.00,0.0495
3070.00,0.0495
3069.00,0.0495
3068.00,0.0494
3067.00,0.0494
3066.00,0.0494
3065.00,0.0493
3064.00,0.0492
3063.00,0.0492
3062.00,0.0492
3061.00,0.0492
3060.00,0.0492
3059.00,0.0491
3058.00,0.0491
3057.00,0.0491
3056.00,0.0491
3055.00,0.0491
3054.00,0.0491
3053.00,0.0491
3052.00,0.0491
3051.00,0.0491
3050.00,0.0491
3049.00,0.0492
3048.00,0.0492
3047.00,0.0491
3046.00,0.0491
3045.00,0.0490
3044.00,0.0490
3043.00,0.0489
3042.00,0.0488
3041.00,0.0487
3040.00,0.0487
3039.00,0.0487
3038.00,0.0487
3037.00,0.0487
3036.00,0.0487
3035.00,0.0487
3034.00,0.0487
3033.00,0.0486
3032.00,0.0486
3031.00,0.0485
3030.00,0.0485
3029.00,0.0484
3028.00,0.0483
3027.00,0.0483
3026.00,0.0483
3025.00,0.0483
3024.00,0.0483
3023.00,0.0483
3022.00,0.0482
3021.00,0.0482
3020.00,0.0481
3019.00,0.0480
3018.00,0.0480
3017.00,0.0479
3016.00,0.0479
3015.00,0.0479
3014.00,0.0478
3013.00,0.0477
3012.00,0.0476
3011.00,0.0476
3010.00,0.0475
3009.00,0.0474
3008.00,0.0472
3007.00,0.0470
3006.00,0.0469
3005.00,0.0468
3004.00,0.0467
3003.00,0.0465
3002.00,0.0464
3001.00,0.0462
3000.00,0.0461
2999.00,0.0459
2998.00,0.0457
2997.00,0.0456
2996.00,0.0455
2995.00,0.0454
2994.00,0.0454
2993.00,0.0453
2992.00,0.0452
2991.00,0.0451
2990.00,0.0450
2989.00,0.0450
2988.00,0.0449
2987.00,0.0447
2986.00,0.0445
2985.00,0.0441
2984.00,0.0437
2983.00,0.0434
2982.00,0.0432
2981.00,0.0432
2980.00,0.0433
2979.00,0.0435
2978.00,0.0437
2977.00,0.0439
2976.00,0.0441
2975.00,0.0441
2974.00,0.0441
2973.00,0.0440
2972.00,0.0439
2971.00,0.0439
2970.00,0.0440
2969.00,0.0442
2968.00,0.0444
2967.00,0.0445
2966.00,0.0446
2965.00,0.0446
2964.00,0.0447
2963.00,0.0447
2962.00,0.0448
2961.00,0.0449
2960.00,0.0449
2959.00,0.0448
2958.00,0.0448
2957.00,0.0449
2956.00,0.0450
2955.00,0.0451
2954.00,0.0453
2953.00,0.0453
2952.00,0.0454
2951.00,0.0455
2950.00,0.0455
2949.00,0.0455
2948.00,0.0455
2947.00,0.0455
2946.00,0.0455
2945.00,0.0456
2944.00,0.0456
2943.00,0.0457
2942.00,0.0458
2941.00,0.0458
2940.00,0.0457
2939.00,0.0457
2938.00,0.0457
2937.00,0.0457
2936.00,0.0457
2935.00,0.0457
2934.00,0.0456
2933.00,0.0456
2932.00,0.0455
2931.00,0.0455
2930.00,0.0455
2929.00,0.0455
2928.00,0.0455
2927.00,0.0455
2926.00,0.0455
2925.00,0.0454
2924.00,0.0454
2923.00,0.0454
2922.00,0.0454
2921.00,0.0454
2920.00,0.0453
2919.00,0.0453
2918.00,0.0452
2917.00,0.0452
2916.00,0.0452
2915.00,0.0452
2914.00,0.0452
2913.00,0.0452
2912.00,0.0452
2911.00,0.0452
2910.00,0.0452
2909.00,0.0452
2908.00,0.0452
2907.00,0.0451
2906.00,0.0451
2905.00,0.0451
2904.00,0.0450
2903.00,0.0449
2902.00,0.0449
2901.00,0.0449
2900.00,0.0449
2899.00,0.0449
2898.00,0.0449
2897.00,0.0448
2896.00,0.0448
2895.00,0.0448
2894.00,0.0447
2893.00,0.0447
2892.00,0.0446
2891.00,0.0446
2890.00,0.0446
2889.00,0.0446
2888.00,0.0446
2887.00,0.0446
2886.00,0.0445
2885.00,0.0444
2884.00,0.0444
2883.00,0.0444
2882.00,0.0444
2881.00,0.0445
2880.00,0.0446
2879.00,0.0446
2878.00,0.0446
2877.00,0.0447
2876.00,0.0446
2875.00,0.0446
2874.00,0.0446
2873.00,0.0445
2872.00,0.0445
2871.00,0.0445
2870.00,0.0445
2869.00,0.0446
2868.00,0.0446
2867.00,0.0446
2866.00,0.0446
2865.00,0.0445
2864.00,0.0445
2863.00,0.0445
2862.00,0.0445
2861.00,0.0445
2860.00,0.0446
2859.00,0.0447
2858.00,0.0448
2857.00,0.0448
2856.00,0.0448
2855.00,0.0447
2854.00,0.0446
2853.00,0.0446
2852.00,0.0446
2851.00,0.0446
2850.00,0.0447
2849.00,0.0447
2848.00,0.0447
2847.00,0.0447
2846.00,0.0447
2845.00,0.0447
2844.00,0.0447
2843.00,0.0447
2842.00,0.0447
2841.00,0.0446
2840.00,0.0445
2839.00,0.0444
2838.00,0.0444
2837.00,0.0444
2836.00,0.0445
2835.00,0.0445
2834.00,0.0446
2833.00,0.0445
2832.00,0.0444
2831.00,0.0444
2830.00,0.0443
2829.00,0.0443
2828.00,0.0444
2827.00,0.0444
2826.00,0.0444
2825.00,0.0443
2824.00,0.0443
2823.00,0.0443
2822.00,0.0443
2821.00,0.0442
2820.00,0.0442
2819.00,0.0441
2818.00,0.0441
2817.00,0.0441
2816.00,0.0441
2815.00,0.0440
2814.00,0.0440
2813.00,0.0440
2812.00,0.0439
2811.00,0.0439
2810.00,0.0439
2809.00,0.0439
2808.00,0.0439
2807.00,0.0439
2806.00,0.0439
2805.00,0.0439
2804.00,0.0439
2803.00,0.0439
2802.00,0.0439
2801.00,0.0438
2800.00,0.0438
2799.00,0.0438
2798.00,0.0438
2797.00,0.0438
2796.00,0.0437
2795.00,0.0437
2794.00,0.0437
2793.00,0.0437
2792.00,0.0437
2791.00,0.0437
2790.00,0.0437
2789.00,0.0437
2788.00,0.0437
2787.00,0.0436
2786.00,0.0436
2785.00,0.0436
2784.00,0.0436
2783.00,0.0435
2782.00,0.0434
2781.00,0.0434
2780.00,0.0433
2779.00,0.0433
2778.00,0.0433
2777.00,0.0434
2776.00,0.0434
2775.00,0.0434
2774.00,0.0433
2773.00,0.0433
2772.00,0.0433
2771.00,0.0432
2770.00,0.0431
2769.00,0.0431
2768.00,0.0430
2767.00,0.0430
2766.00,0.0430
2765.00,0.0431
2764.00,0.0431
2763.00,0.0431
2762.00,0.0431
2761.00,0.0430
2760.00,0.0430
2759.00,0.0430
2758.00,0.0430
2757.00,0.0430
2756.00,0.0430
2755.00,0.0430
2754.00,0.0429
2753.00,0.0429
2752.00,0.0429
2751.00,0.0429
2750.00,0.0429
2749.00,0.0429
2748.00,0.0430
2747.00,0.0430
2746.00,0.0429
2745.00,0.0429
2744.00,0.0429
2743.00,0.0429
2742.00,0.0429
2741.00,0.0428
2740.00,0.0428
2739.00,0.0427
2738.00,0.0426
2737.00,0.0426
2736.00,0.0426
2735.00,0.0426
2734.00,0.0426
2733.00,0.0427
2732.00,0.0427
2731.00,0.0427
2730.00,0.0426
2729.00,0.0426
2728.00,0.0426
2727.00,0.0425
2726.00,0.0425
2725.00,0.0425
2724.00,0.0425
2723.00,0.0425
2722.00,0.0424
2721.00,0.0424
2720.00,0.0424
2719.00,0.0424
2718.00,0.0424
2717.00,0.0424
2716.00,0.0424
2715.00,0.0424
2714.00,0.0424
2713.00,0.0423
2712.00,0.0423
2711.00,0.0423
2710.00,0.0423
2709.00,0.0422
2708.00,0.0422
2707.00,0.0422
2706.00,0.0422
2705.00,0.0422
2704.00,0.0422
2703.00,0.0422
2702.00,0.0421
2701.00,0.0421
2700.00,0.0421
2699.00,0.0421
2698.00,0.0421
2697.00,0.0420
2696.00,0.0420
2695.00,0.0420
2694.00,0.0420
2693.00,0.0421
2692.00,0.0421
2691.00,0.0421
2690.00,0.0420
2689.00,0.0420
2688.00,0.0420
2687.00,0.0420
2686.00,0.0420
2685.00,0.0420
2684.00,0.0420
2683.00,0.0419
2682.00,0.0419
2681.00,0.0419
2680.00,0.0419
2679.00,0.0418
2678.00,0.0418
2677.00,0.0417
2676.00,0.0417
2675.00,0.0417
2674.00,0.0418
2673.00,0.0418
2672.00,0.0417
2671.00,0.0417
2670.00,0.0416
2669.00,0.0416
2668.00,0.0417
2667.00,0.0417
2666.00,0.0417
2665.00,0.0417
2664.00,0.0418
2663.00,0.0418
2662.00,0.0418
2661.00,0.0418
2660.00,0.0418
2659.00,0.0418
2658.00,0.0419
2657.00,0.0419
2656.00,0.0419
2655.00,0.0419
2654.00,0.0419
2653.00,0.0419
2652.00,0.0419
2651.00,0.0420
2650.00,0.0420
2649.00,0.0420
2648.00,0.0419
2647.00,0.0418
2646.00,0.0418
2645.00,0.0418
2644.00,0.0418
2643.00,0.0419
2642.00,0.0419
2641.00,0.0420
2640.00,0.0420
2639.00,0.0420
2638.00,0.0419
2637.00,0.0419
2636.00,0.0419
2635.00,0.0419
2634.00,0.0419
2633.00,0.0420
2632.00,0.0420
2631.00,0.0420
2630.00,0.0419
2629.00,0.0418
2628.00,0.0418
2627.00,0.0417
2626.00,0.0418
2625.00,0.0419
2624.00,0.0419
2623.00,0.0420
2622.00,0.0420
2621.00,0.0420
2620.00,0.0420
2619.00,0.0420
2618.00,0.0420
2617.00,0.0420
2616.00,0.0420
2615.00,0.0419
2614.00,0.0419
2613.00,0.0419
2612.00,0.0420
2611.00,0.0420
2610.00,0.0420
2609.00,0.0419
2608.00,0.0419
2607.00,0.0419
2606.00,0.0419
2605.00,0.0420
2604.00,0.0421
2603.00,0.0421
2602.00,0.0421
2601.00,0.0421
2600.00,0.0421
2599.00,0.0421
2598.00,0.0420
2597.00,0.0420
2596.00,0.0419
2595.00,0.0419
2594.00,0.0419
2593.00,0.0419
2592.00,0.0420
2591.00,0.0420
2590.00,0.0420
2589.00,0.0420
2588.00,0.0420
2587.00,0.0420
2586.00,0.0419
2585.00,0.0418
2584.00,0.0418
2583.00,0.0418
2582.00,0.0418
2581.00,0.0418
2580.00,0.0419
2579.00,0.0419
2578.00,0.0419
2577.00,0.0419
2576.00,0.0418
2575.00,0.0418
2574.00,0.0418
2573.00,0.0418
2572.00,0.0418
2571.00,0.0418
2570.00,0.0418
2569.00,0.0417
2568.00,0.0418
2567.00,0.0419
2566.00,0.0420
2565.00,0.0420
2564.00,0.0420
2563.00,0.0420
2562.00,0.0420
2561.00,0.0421
2560.00,0.0421
2559.00,0.0420
2558.00,0.0420
2557.00,0.0420
2556.00,0.0420
2555.00,0.0419
2554.00,0.0419
2553.00,0.0418
2552.00,0.0418
2551.00,0.0417
2550.00,0.0416
2549.00,0.0415
2548.00,0.0414
2547.00,0.0413
2546.00,0.0414
2545.00,0.0415
2544.00,0.0415
2543.00,0.0416
2542.00,0.0415
2541.00,0.0414
2540.00,0.0413
2539.00,0.0411
2538.00,0.0411
2537.00,0.0412
2536.00,0.0412
2535.00,0.0413
2534.00,0.0413
2533.00,0.0414
2532.00,0.0414
2531.00,0.0414
2530.00,0.0414
2529.00,0.0414
2528.00,0.0413
2527.00,0.0412
2526.00,0.0412
2525.00,0.0411
2524.00,0.0410
2523.00,0.0411
2522.00,0.0412
2521.00,0.0413
2520.00,0.0413
2519.00,0.0413
2518.00,0.0414
2517.00,0.0414
2516.00,0.0414
2515.00,0.0414
2514.00,0.0413
2513.00,0.0412
2512.00,0.0412
2511.00,0.0413
2510.00,0.0414
2509.00,0.0414
2508.00,0.0415
2507.00,0.0414
2506.00,0.0414
2505.00,0.0413
2504.00,0.0413
2503.00,0.0413
2502.00,0.0413
2501.00,0.0414
2500.00,0.0414
2499.00,0.0414
2498.00,0.0414
2497.00,0.0414
2496.00,0.0414
2495.00,0.0414
2494.00,0.0415
2493.00,0.0415
2492.00,0.0415
2491.00,0.0416
2490.00,0.0416
2489.00,0.0416
2488.00,0.0415
2487.00,0.0415
2486.00,0.0414
2485.00,0.0413
2484.00,0.0412
2483.00,0.0412
2482.00,0.0412
2481.00,0.0413
2480.00,0.0414
2479.00,0.0414
2478.00,0.0413
2477.00,0.0413
2476.00,0.0412
2475.00,0.0412
2474.00,0.0412
2473.00,0.0412
2472.00,0.0413
2471.00,0.0413
2470.00,0.0413
2469.00,0.0412
2468.00,0.0412
2467.00,0.0411
2466.00,0.0411
2465.00,0.0411
2464.00,0.0411
2463.00,0.0411
2462.00,0.0410
2461.00,0.0411
2460.00,0.0411
2459.00,0.0412
2458.00,0.0412
2457.00,0.0412
2456.00,0.0412
2455.00,0.0412
2454.00,0.0413
2453.00,0.0413
2452.00,0.0414
2451.00,0.0414
2450.00,0.0413
2449.00,0.0412
2448.00,0.0411
2447.00,0.0411
2446.00,0.0411
2445.00,0.0410
2444.00,0.0410
2443.00,0.0409
2442.00,0.0409
2441.00,0.0409
2440.00,0.0409
2439.00,0.0410
2438.00,0.0410
2437.00,0.0410
2436.00,0.0410
2435.00,0.0409
2434.00,0.0409
2433.00,0.0408
2432.00,0.0408
2431.00,0.0409
2430.00,0.0409
2429.00,0.0409
2428.00,0.0409
2427.00,0.0409
2426.00,0.0409
2425.00,0.0409
2424.00,0.0409
2423.00,0.0408
2422.00,0.0408
2421.00,0.0407
2420.00,0.0407
2419.00,0.0407
2418.00,0.0407
2417.00,0.0407
2416.00,0.0406
2415.00,0.0406
2414.00,0.0406
2413.00,0.0406
2412.00,0.0406
2411.00,0.0406
2410.00,0.0406
2409.00,0.0407
2408.00,0.0407
2407.00,0.0406
2406.00,0.0406
2405.00,0.0405
2404.00,0.0405
2403.00,0.0405
2402.00,0.0404
2401.00,0.0403
2400.00,0.0403
2399.00,0.0403
2398.00,0.0403
2397.00,0.0402
2396.00,0.0401
2395.00,0.0401
2394.00,0.0400
2393.00,0.0400
2392.00,0.0400
2391.00,0.0400
2390.00,0.0400
2389.00,0.0400
2388.00,0.0400
2387.00,0.0400
2386.00,0.0399
2385.00,0.0399
2384.00,0.0398
2383.00,0.0397
2382.00,0.0396
2381.00,0.0397
2380.00,0.0398
2379.00,0.0398
2378.00,0.0398
2377.00,0.0398
2376.00,0.0398
2375.00,0.0398
2374.00,0.0399
2373.00,0.0399
2372.00,0.0399
2371.00,0.0397
2370.00,0.0396
2369.00,0.0394
2368.00,0.0393
2367.00,0.0394
2366.00,0.0398
2365.00,0.0400
2364.00,0.0401
2363.00,0.0399
2362.00,0.0398
2361.00,0.0398
2360.00,0.0400
2359.00,0.0403
2358.00,0.0406
2357.00,0.0408
2356.00,0.0409
2355.00,0.0407
2354.00,0.0406
2353.00,0.0405
2352.00,0.0404
2351.00,0.0401
2350.00,0.0397
2349.00,0.0393
2348.00,0.0389
2347.00,0.0386
2346.00,0.0386
2345.00,0.0389
2344.00,0.0394
2343.00,0.0398
2342.00,0.0400
2341.00,0.0401
2340.00,0.0401
2339.00,0.0400
2338.00,0.0398
2337.00,0.0397
2336.00,0.0396
2335.00,0.0397
2334.00,0.0399
2333.00,0.0400
2332.00,0.0401
2331.00,0.0401
2330.00,0.0402
2329.00,0.0403
2328.00,0.0404
2327.00,0.0406
2326.00,0.0407
2325.00,0.0407
2324.00,0.0406
2323.00,0.0406
2322.00,0.0406
2321.00,0.0407
2320.00,0.0407
2319.00,0.0406
2318.00,0.0405
2317.00,0.0403
2316.00,0.0402
2315.00,0.0401
2314.00,0.0400
2313.00,0.0400
2312.00,0.0401
2311.00,0.0402
2310.00,0.0403
2309.00,0.0404
2308.00,0.0403
2307.00,0.0402
2306.00,0.0401
2305.00,0.0400
2304.00,0.0399
2303.00,0.0397
2302.00,0.0397
2301.00,0.0397
2300.00,0.0398
2299.00,0.0398
2298.00,0.0398
2297.00,0.0398
2296.00,0.0398
2295.00,0.0397
2294.00,0.0397
2293.00,0.0399
2292.00,0.0401
2291.00,0.0402
2290.00,0.0403
2289.00,0.0403
2288.00,0.0403
2287.00,0.0404
2286.00,0.0404
2285.00,0.0405
2284.00,0.0405
2283.00,0.0405
2282.00,0.0405
2281.00,0.0404
2280.00,0.0403
2279.00,0.0403
2278.00,0.0403
2277.00,0.0403
2276.00,0.0402
2275.00,0.0401
2274.00,0.0400
2273.00,0.0399
2272.00,0.0399
2271.00,0.0399
2270.00,0.0398
2269.00,0.0398
2268.00,0.0398
2267.00,0.0399
2266.00,0.0400
2265.00,0.0401
2264.00,0.0401
2263.00,0.0401
2262.00,0.0401
2261.00,0.0402
2260.00,0.0402
2259.00,0.0401
2258.00,0.0399
2257.00,0.0397
2256.00,0.0395
2255.00,0.0396
2254.00,0.0397
2253.00,0.0399
2252.00,0.0399
2251.00,0.0398
2250.00,0.0398
2249.00,0.0397
2248.00,0.0397
2247.00,0.0397
2246.00,0.0398
2245.00,0.0400
2244.00,0.0400
2243.00,0.0401
2242.00,0.0400
2241.00,0.0399
2240.00,0.0398
2239.00,0.0397
2238.00,0.0397
2237.00,0.0397
2236.00,0.0397
2235.00,0.0397
2234.00,0.0398
2233.00,0.0399
2232.00,0.0398
2231.00,0.0396
2230.00,0.0395
2229.00,0.0394
2228.00,0.0395
2227.00,0.0397
2226.00,0.0398
2225.00,0.0398
2224.00,0.0397
2223.00,0.0395
2222.00,0.0394
2221.00,0.0394
2220.00,0.0395
2219.00,0.0395
2218.00,0.0395
2217.00,0.0395
2216.00,0.0395
2215.00,0.0396
2214.00,0.0397
2213.00,0.0397
2212.00,0.0395
2211.00,0.0393
2210.00,0.0393
2209.00,0.0393
2208.00,0.0394
2207.00,0.0395
2206.00,0.0395
2205.00,0.0394
2204.00,0.0394
2203.00,0.0394
2202.00,0.0394
2201.00,0.0394
2200.00,0.0394
2199.00,0.0393
2198.00,0.0393
2197.00,0.0394
2196.00,0.0394
2195.00,0.0393
2194.00,0.0392
2193.00,0.0391
2192.00,0.0390
2191.00,0.0388
2190.00,0.0386
2189.00,0.0385
2188.00,0.0386
2187.00,0.0390
2186.00,0.0394
2185.00,0.0395
2184.00,0.0393
2183.00,0.0390
2182.00,0.0388
2181.00,0.0389
2180.00,0.0389
2179.00,0.0390
2178.00,0.0391
2177.00,0.0392
2176.00,0.0392
2175.00,0.0391
2174.00,0.0390
2173.00,0.0390
2172.00,0.0391
2171.00,0.0393
2170.00,0.0396
2169.00,0.0398
2168.00,0.0400
2167.00,0.0400
2166.00,0.0402
2165.00,0.0404
2164.00,0.0407
2163.00,0.0407
2162.00,0.0405
2161.00,0.0399
2160.00,0.0389
2159.00,0.0380
2158.00,0.0374
2157.00,0.0373
2156.00,0.0374
2155.00,0.0377
2154.00,0.0380
2153.00,0.0383
2152.00,0.0384
2151.00,0.0381
2150.00,0.0378
2149.00,0.0376
2148.00,0.0376
2147.00,0.0379
2146.00,0.0381
2145.00,0.0384
2144.00,0.0385
2143.00,0.0386
2142.00,0.0387
2141.00,0.0388
2140.00,0.0387
2139.00,0.0384
2138.00,0.0381
2137.00,0.0379
2136.00,0.0377
2135.00,0.0375
2134.00,0.0374
2133.00,0.0375
2132.00,0.0376
2131.00,0.0377
2130.00,0.0378
2129.00,0.0379
2128.00,0.0380
2127.00,0.0380
2126.00,0.0380
2125.00,0.0379
2124.00,0.0379
2123.00,0.0378
2122.00,0.0378
2121.00,0.0378
2120.00,0.0378
2119.00,0.0378
2118.00,0.0378
2117.00,0.0377
2116.00,0.0376
2115.00,0.0375
2114.00,0.0374
2113.00,0.0374
2112.00,0.0375
2111.00,0.0377
2110.00,0.0380
2109.00,0.0382
2108.00,0.0383
2107.00,0.0383
2106.00,0.0383
2105.00,0.0382
2104.00,0.0381
2103.00,0.0379
2102.00,0.0379
2101.00,0.0378
2100.00,0.0376
2099.00,0.0374
2098.00,0.0372
2097.00,0.0372
2096.00,0.0372
2095.00,0.0372
2094.00,0.0373
2093.00,0.0374
2092.00,0.0375
2091.00,0.0374
2090.00,0.0373
2089.00,0.0373
2088.00,0.0373
2087.00,0.0374
2086.00,0.0375
2085.00,0.0376
2084.00,0.0377
2083.00,0.0378
2082.00,0.0377
2081.00,0.0376
2080.00,0.0376
2079.00,0.0376
2078.00,0.0376
2077.00,0.0377
2076.00,0.0377
2075.00,0.0378
2074.00,0.0378
2073.00,0.0377
2072.00,0.0376
2071.00,0.0376
2070.00,0.0376
2069.00,0.0375
2068.00,0.0374
2067.00,0.0372
2066.00,0.0373
2065.00,0.0374
2064.00,0.0375
2063.00,0.0375
2062.00,0.0375
2061.00,0.0374
2060.00,0.0373
2059.00,0.0372
2058.00,0.0372
2057.00,0.0373
2056.00,0.0374
2055.00,0.0374
2054.00,0.0376
2053.00,0.0378
2052.00,0.0380
2051.00,0.0380
2050.00,0.0378
2049.00,0.0375
2048.00,0.0373
2047.00,0.0374
2046.00,0.0376
2045.00,0.0378
2044.00,0.0381
2043.00,0.0382
2042.00,0.0381
2041.00,0.0379
2040.00,0.0377
2039.00,0.0375
2038.00,0.0376
2037.00,0.0380
2036.00,0.0383
2035.00,0.0383
2034.00,0.0379
2033.00,0.0377
2032.00,0.0377
2031.00,0.0379
2030.00,0.0380
2029.00,0.0378
2028.00,0.0375
2027.00,0.0373
2026.00,0.0371
2025.00,0.0370
2024.00,0.0368
2023.00,0.0366
2022.00,0.0365
2021.00,0.0364
2020.00,0.0362
2019.00,0.0360
2018.00,0.0358
2017.00,0.0357
2016.00,0.0359
2015.00,0.0361
2014.00,0.0364
2013.00,0.0365
2012.00,0.0366
2011.00,0.0366
2010.00,0.0367
2009.00,0.0368
2008.00,0.0368
2007.00,0.0367
2006.00,0.0365
2005.00,0.0363
2004.00,0.0362
2003.00,0.0363
2002.00,0.0367
2001.00,0.0370
2000.00,0.0371
1999.00,0.0370
1998.00,0.0368
1997.00,0.0369
1996.00,0.0371
1995.00,0.0373
1994.00,0.0375
1993.00,0.0375
1992.00,0.0374
1991.00,0.0371
1990.00,0.0368
1989.00,0.0366
1988.00,0.0366
1987.00,0.0367
1986.00,0.0368
1985.00,0.0369
1984.00,0.0369
1983.00,0.0369
1982.00,0.0369
1981.00,0.0368
1980.00,0.0365
1979.00,0.0361
1978.00,0.0356
1977.00,0.0354
1976.00,0.0354
1975.00,0.0356
1974.00,0.0359
1973.00,0.0359
1972.00,0.0357
1971.00,0.0355
1970.00,0.0355
1969.00,0.0358
1968.00,0.0360
1967.00,0.0359
1966.00,0.0356
1965.00,0.0354
1964.00,0.0355
1963.00,0.0357
1962.00,0.0358
1961.00,0.0358
1960.00,0.0358
1959.00,0.0358
1958.00,0.0358
1957.00,0.0357
1956.00,0.0355
1955.00,0.0354
1954.00,0.0354
1953.00,0.0354
1952.00,0.0354
1951.00,0.0353
1950.00,0.0352
1949.00,0.0351
1948.00,0.0350
1947.00,0.0350
1946.00,0.0350
1945.00,0.0349
1944.00,0.0347
1943.00,0.0345
1942.00,0.0344
1941.00,0.0344
1940.00,0.0344
1939.00,0.0344
1938.00,0.0343
1937.00,0.0343
1936.00,0.0343
1935.00,0.0343
1934.00,0.0342
1933.00,0.0341
1932.00,0.0342
1931.00,0.0343
1930.00,0.0345
1929.00,0.0346
1928.00,0.0347
1927.00,0.0348
1926.00,0.0348
1925.00,0.0348
1924.00,0.0347
1923.00,0.0345
1922.00,0.0344
1921.00,0.0344
1920.00,0.0344
1919.00,0.0343
1918.00,0.0341
1917.00,0.0339
1916.00,0.0339
1915.00,0.0340
1914.00,0.0341
1913.00,0.0341
1912.00,0.0341
1911.00,0.0340
1910.00,0.0339
1909.00,0.0337
1908.00,0.0336
1907.00,0.0335
1906.00,0.0335
1905.00,0.0336
1904.00,0.0337
1903.00,0.0336
1902.00,0.0336
1901.00,0.0335
1900.00,0.0334
1899.00,0.0334
1898.00,0.0334
1897.00,0.0334
1896.00,0.0333
1895.00,0.0331
1894.00,0.0330
1893.00,0.0331
1892.00,0.0333
1891.00,0.0333
1890.00,0.0333
1889.00,0.0331
1888.00,0.0329
1887.00,0.0328
1886.00,0.0328
1885.00,0.0328
1884.00,0.0328
1883.00,0.0328
1882.00,0.0328
1881.00,0.0328
1880.00,0.0328
1879.00,0.0327
1878.00,0.0326
1877.00,0.0325
1876.00,0.0324
1875.00,0.0324
1874.00,0.0325
1873.00,0.0326
1872.00,0.0327
1871.00,0.0328
1870.00,0.0327
1869.00,0.0324
1868.00,0.0321
1867.00,0.0319
1866.00,0.0319
1865.00,0.0320
1864.00,0.0320
1863.00,0.0319
1862.00,0.0318
1861.00,0.0318
1860.00,0.0317
1859.00,0.0317
1858.00,0.0317
1857.00,0.0317
1856.00,0.0318
1855.00,0.0317
1854.00,0.0316
1853.00,0.0315
1852.00,0.0315
1851.00,0.0315
1850.00,0.0315
1849.00,0.0314
1848.00,0.0314
1847.00,0.0314
1846.00,0.0316
1845.00,0.0316
1844.00,0.0313
1843.00,0.0310
1842.00,0.0310
1841.00,0.0311
1840.00,0.0311
1839.00,0.0310
1838.00,0.0309
1837.00,0.0309
1836.00,0.0309
1835.00,0.0308
1834.00,0.0308
1833.00,0.0309
1832.00,0.0310
1831.00,0.0310
1830.00,0.0308
1829.00,0.0305
1828.00,0.0304
1827.00,0.0305
1826.00,0.0305
1825.00,0.0303
1824.00,0.0301
1823.00,0.0301
1822.00,0.0301
1821.00,0.0302
1820.00,0.0301
1819.00,0.0300
1818.00,0.0298
1817.00,0.0297
1816.00,0.0296
1815.00,0.0295
1814.00,0.0295
1813.00,0.0295
1812.00,0.0295
1811.00,0.0293
1810.00,0.0292
1809.00,0.0292
1808.00,0.0293
1807.00,0.0294
1806.00,0.0294
1805.00,0.0295
1804.00,0.0295
1803.00,0.0295
1802.00,0.0295
1801.00,0.0294
1800.00,0.0293
1799.00,0.0292
1798.00,0.0292
1797.00,0.0294
1796.00,0.0295
1795.00,0.0296
1794.00,0.0297
1793.00,0.0296
1792.00,0.0295
1791.00,0.0294
1790.00,0.0295
1789.00,0.0297
1788.00,0.0299
1787.00,0.0301
1786.00,0.0302
1785.00,0.0303
1784.00,0.0303
1783.00,0.0303
1782.00,0.0304
1781.00,0.0305
1780.00,0.0305
1779.00,0.0306
1778.00,0.0308
1777.00,0.0311
1776.00,0.0313
1775.00,0.0315
1774.00,0.0317
1773.00,0.0316
1772.00,0.0313
1771.00,0.0313
1770.00,0.0317
1769.00,0.0322
1768.00,0.0324
1767.00,0.0324
1766.00,0.0325
1765.00,0.0328
1764.00,0.0331
1763.00,0.0331
1762.00,0.0330
1761.00,0.0329
1760.00,0.0330
1759.00,0.0332
1758.00,0.0334
1757.00,0.0334
1756.00,0.0334
1755.00,0.0336
1754.00,0.0339
1753.00,0.0341
1752.00,0.0340
1751.00,0.0339
1750.00,0.0338
1749.00,0.0339
1748.00,0.0341
1747.00,0.0344
1746.00,0.0346
1745.00,0.0349
1744.00,0.0351
1743.00,0.0354
1742.00,0.0356
1741.00,0.0359
1740.00,0.0362
1739.00,0.0363
1738.00,0.0365
1737.00,0.0370
1736.00,0.0375
1735.00,0.0378
1734.00,0.0378
1733.00,0.0376
1732.00,0.0378
1731.00,0.0383
1730.00,0.0387
1729.00,0.0389
1728.00,0.0392
1727.00,0.0395
1726.00,0.0398
1725.00,0.0401
1724.00,0.0404
1723.00,0.0406
1722.00,0.0408
1721.00,0.0410
1720.00,0.0412
1719.00,0.0412
1718.00,0.0412
1717.00,0.0414
1716.00,0.0417
1715.00,0.0421
1714.00,0.0425
1713.00,0.0428
1712.00,0.0430
1711.00,0.0431
1710.00,0.0431
1709.00,0.0432
1708.00,0.0433
1707.00,0.0434
1706.00,0.0434
1705.00,0.0434
1704.00,0.0436
1703.00,0.0441
1702.00,0.0445
1701.00,0.0446
1700.00,0.0442
1699.00,0.0439
1698.00,0.0441
1697.00,0.0445
1696.00,0.0444
1695.00,0.0440
1694.00,0.0440
1693.00,0.0443
1692.00,0.0446
1691.00,0.0446
1690.00,0.0445
1689.00,0.0445
1688.00,0.0445
1687.00,0.0446
1686.00,0.0446
1685.00,0.0445
1684.00,0.0444
1683.00,0.0443
1682.00,0.0446
1681.00,0.0450
1680.00,0.0451
1679.00,0.0452
1678.00,0.0455
1677.00,0.0459
1676.00,0.0461
1675.00,0.0461
1674.00,0.0461
1673.00,0.0461
1672.00,0.0462
1671.00,0.0463
1670.00,0.0464
1669.00,0.0465
1668.00,0.0466
1667.00,0.0468
1666.00,0.0470
1665.00,0.0471
1664.00,0.0472
1663.00,0.0473
1662.00,0.0475
1661.00,0.0477
1660.00,0.0480
1659.00,0.0483
1658.00,0.0484
1657.00,0.0484
1656.00,0.0485
1655.00,0.0484
1654.00,0.0486
1653.00,0.0489
1652.00,0.0486
1651.00,0.0490
1650.00,0.0496
1649.00,0.0499
1648.00,0.0500
1647.00,0.0503
1646.00,0.0506
1645.00,0.0510
1644.00,0.0513
1643.00,0.0516
1642.00,0.0518
1641.00,0.0518
1640.00,0.0518
1639.00,0.0519
1638.00,0.0521
1637.00,0.0525
1636.00,0.0531
1635.00,0.0536
1634.00,0.0538
1633.00,0.0540
1632.00,0.0542
1631.00,0.0543
1630.00,0.0545
1629.00,0.0547
1628.00,0.0549
1627.00,0.0551
1626.00,0.0554
1625.00,0.0558
1624.00,0.0562
1623.00,0.0565
1622.00,0.0567
1621.00,0.0569
1620.00,0.0571
1619.00,0.0572
1618.00,0.0574
1617.00,0.0577
1616.00,0.0579
1615.00,0.0583
1614.00,0.0587
1613.00,0.0590
1612.00,0.0592
1611.00,0.0593
1610.00,0.0595
1609.00,0.0597
1608.00,0.0599
1607.00,0.0602
1606.00,0.0605
1605.00,0.0608
1604.00,0.0611
1603.00,0.0613
1602.00,0.0614
1601.00,0.0615
1600.00,0.0616
1599.00,0.0618
1598.00,0.0621
1597.00,0.0623
1596.00,0.0626
1595.00,0.0628
1594.00,0.0630
1593.00,0.0632
1592.00,0.0634
1591.00,0.0636
1590.00,0.0638
1589.00,0.0640
1588.00,0.0642
1587.00,0.0644
1586.00,0.0647
1585.00,0.0648
1584.00,0.0649
1583.00,0.0650
1582.00,0.0651
1581.00,0.0651
1580.00,0.0650
1579.00,0.0651
1578.00,0.0652
1577.00,0.0655
1576.00,0.0657
1575.00,0.0657
1574.00,0.0657
1573.00,0.0657
1572.00,0.0656
1571.00,0.0656
1570.00,0.0657
1569.00,0.0658
1568.00,0.0658
1567.00,0.0658
1566.00,0.0657
1565.00,0.0654
1564.00,0.0651
1563.00,0.0649
1562.00,0.0645
1561.00,0.0639
1560.00,0.0637
1559.00,0.0646
1558.00,0.0648
1557.00,0.0647
1556.00,0.0648
1555.00,0.0647
1554.00,0.0645
1553.00,0.0642
1552.00,0.0640
1551.00,0.0638
1550.00,0.0635
1549.00,0.0631
1548.00,0.0628
1547.00,0.0625
1546.00,0.0621
1545.00,0.0616
1544.00,0.0612
1543.00,0.0609
1542.00,0.0605
1541.00,0.0605
1540.00,0.0604
1539.00,0.0601
1538.00,0.0598
1537.00,0.0597
1536.00,0.0596
1535.00,0.0593
1534.00,0.0590
1533.00,0.0587
1532.00,0.0585
1531.00,0.0582
1530.00,0.0579
1529.00,0.0576
1528.00,0.0573
1527.00,0.0570
1526.00,0.0566
1525.00,0.0563
1524.00,0.0560
1523.00,0.0557
1522.00,0.0555
1521.00,0.0554
1520.00,0.0554
1519.00,0.0553
1518.00,0.0551
1517.00,0.0549
1516.00,0.0546
1515.00,0.0545
1514.00,0.0545
1513.00,0.0543
1512.00,0.0540
1511.00,0.0536
1510.00,0.0532
1509.00,0.0528
1508.00,0.0527
1507.00,0.0529
1506.00,0.0528
1505.00,0.0526
1504.00,0.0526
1503.00,0.0526
1502.00,0.0523
1501.00,0.0520
1500.00,0.0518
1499.00,0.0518
1498.00,0.0518
1497.00,0.0519
1496.00,0.0519
1495.00,0.0517
1494.00,0.0516
1493.00,0.0515
1492.00,0.0513
1491.00,0.0512
1490.00,0.0512
1489.00,0.0512
1488.00,0.0512
1487.00,0.0511
1486.00,0.0511
1485.00,0.0511
1484.00,0.0510
1483.00,0.0509
1482.00,0.0507
1481.00,0.0507
1480.00,0.0506
1479.00,0.0506
1478.00,0.0506
1477.00,0.0506
1476.00,0.0507
1475.00,0.0507
1474.00,0.0508
1473.00,0.0510
1472.00,0.0512
1471.00,0.0513
1470.00,0.0514
1469.00,0.0514
1468.00,0.0515
1467.00,0.0515
1466.00,0.0515
1465.00,0.0516
1464.00,0.0516
1463.00,0.0516
1462.00,0.0515
1461.00,0.0514
1460.00,0.0513
1459.00,0.0513
1458.00,0.0516
1457.00,0.0520
1456.00,0.0521
1455.00,0.0522
1454.00,0.0524
1453.00,0.0525
1452.00,0.0526
1451.00,0.0527
1450.00,0.0528
1449.00,0.0531
1448.00,0.0534
1447.00,0.0536
1446.00,0.0537
1445.00,0.0538
1444.00,0.0538
1443.00,0.0538
1442.00,0.0538
1441.00,0.0538
1440.00,0.0539
1439.00,0.0542
1438.00,0.0545
1437.00,0.0548
1436.00,0.0551
1435.00,0.0551
1434.00,0.0551
1433.00,0.0550
1432.00,0.0550
1431.00,0.0551
1430.00,0.0551
1429.00,0.0552
1428.00,0.0553
1427.00,0.0554
1426.00,0.0555
1425.00,0.0555
1424.00,0.0556
1423.00,0.0557
1422.00,0.0558
1421.00,0.0559
1420.00,0.0561
1419.00,0.0563
1418.00,0.0566
1417.00,0.0567
1416.00,0.0569
1415.00,0.0569
1414.00,0.0567
1413.00,0.0566
1412.00,0.0567
1411.00,0.0567
1410.00,0.0567
1409.00,0.0568
1408.00,0.0568
1407.00,0.0569
1406.00,0.0570
1405.00,0.0570
1404.00,0.0571
1403.00,0.0571
1402.00,0.0571
1401.00,0.0570
1400.00,0.0570
1399.00,0.0571
1398.00,0.0572
1397.00,0.0573
1396.00,0.0575
1395.00,0.0576
1394.00,0.0577
1393.00,0.0578
1392.00,0.0578
1391.00,0.0579
1390.00,0.0578
1389.00,0.0579
1388.00,0.0580
1387.00,0.0581
1386.00,0.0582
1385.00,0.0582
1384.00,0.0582
1383.00,0.0582
1382.00,0.0583
1381.00,0.0584
1380.00,0.0586
1379.00,0.0586
1378.00,0.0587
1377.00,0.0587
1376.00,0.0588
1375.00,0.0590
1374.00,0.0592
1373.00,0.0593
1372.00,0.0594
1371.00,0.0594
1370.00,0.0594
1369.00,0.0594
1368.00,0.0594
1367.00,0.0594
1366.00,0.0593
1365.00,0.0593
1364.00,0.0593
1363.00,0.0594
1362.00,0.0596
1361.00,0.0598
1360.00,0.0598
1359.00,0.0598
1358.00,0.0597
1357.00,0.0597
1356.00,0.0598
1355.00,0.0597
1354.00,0.0597
1353.00,0.0596
1352.00,0.0595
1351.00,0.0594
1350.00,0.0593
1349.00,0.0592
1348.00,0.0592
1347.00,0.0592
1346.00,0.0591
1345.00,0.0590
1344.00,0.0589
1343.00,0.0588
1342.00,0.0587
1341.00,0.0588
1340.00,0.0589
1339.00,0.0590
1338.00,0.0591
1337.00,0.0591
1336.00,0.0590
1335.00,0.0589
1334.00,0.0588
1333.00,0.0587
1332.00,0.0587
1331.00,0.0586
1330.00,0.0586
1329.00,0.0585
1328.00,0.0585
1327.00,0.0585
1326.00,0.0584
1325.00,0.0584
1324.00,0.0584
1323.00,0.0584
1322.00,0.0585
1321.00,0.0585
1320.00,0.0586
1319.00,0.0585
1318.00,0.0584
1317.00,0.0583
1316.00,0.0582
1315.00,0.0582
1314.00,0.0583
1313.00,0.0584
1312.00,0.0585
1311.00,0.0586
1310.00,0.0586
1309.00,0.0585
1308.00,0.0585
1307.00,0.0584
1306.00,0.0584
1305.00,0.0584
1304.00,0.0585
1303.00,0.0586
1302.00,0.0587
1301.00,0.0587
1300.00,0.0587
1299.00,0.0586
1298.00,0.0586
1297.00,0.0585
1296.00,0.0585
1295.00,0.0586
1294.00,0.0587
1293.00,0.0588
1292.00,0.0589
1291.00,0.0590
1290.00,0.0591
1289.00,0.0592
1288.00,0.0592
1287.00,0.0592
1286.00,0.0592
1285.00,0.0592
1284.00,0.0593
1283.00,0.0594
1282.00,0.0595
1281.00,0.0595
1280.00,0.0595
1279.00,0.0595
1278.00,0.0595
1277.00,0.0595
1276.00,0.0596
1275.00,0.0597
1274.00,0.0597
1273.00,0.0597
1272.00,0.0597
1271.00,0.0598
1270.00,0.0599
1269.00,0.0600
1268.00,0.0601
1267.00,0.0602
1266.00,0.0604
1265.00,0.0605
1264.00,0.0606
1263.00,0.0607
1262.00,0.0608
1261.00,0.0608
1260.00,0.0610
1259.00,0.0612
1258.00,0.0614
1257.00,0.0616
1256.00,0.0617
1255.00,0.0617
1254.00,0.0618
1253.00,0.0620
1252.00,0.0622
1251.00,0.0624
1250.00,0.0625
1249.00,0.0626
1248.00,0.0629
1247.00,0.0631
1246.00,0.0633
1245.00,0.0635
1244.00,0.0637
1243.00,0.0639
1242.00,0.0640
1241.00,0.0641
1240.00,0.0642
1239.00,0.0643
1238.00,0.0645
1237.00,0.0647
1236.00,0.0649
1235.00,0.0650
1234.00,0.0651
1233.00,0.0652
1232.00,0.0653
1231.00,0.0654
1230.00,0.0655
1229.00,0.0656
1228.00,0.0657
1227.00,0.0659
1226.00,0.0659
1225.00,0.0660
1224.00,0.0660
1223.00,0.0661
1222.00,0.0662
1221.00,0.0664
1220.00,0.0665
1219.00,0.0666
1218.00,0.0666
1217.00,0.0667
1216.00,0.0668
1215.00,0.0669
1214.00,0.0669
1213.00,0.0670
1212.00,0.0671
1211.00,0.0673
1210.00,0.0675
1209.00,0.0676
1208.00,0.0678
1207.00,0.0678
1206.00,0.0678
1205.00,0.0678
1204.00,0.0679
1203.00,0.0680
1202.00,0.0681
1201.00,0.0682
1200.00,0.0683
1199.00,0.0684
1198.00,0.0684
1197.00,0.0684
1196.00,0.0685
1195.00,0.0685
1194.00,0.0686
1193.00,0.0687
1192.00,0.0688
1191.00,0.0689
1190.00,0.0689
1189.00,0.0689
1188.00,0.0689
1187.00,0.0690
1186.00,0.0691
1185.00,0.0692
1184.00,0.0693
1183.00,0.0693
1182.00,0.0693
1181.00,0.0693
1180.00,0.0693
1179.00,0.0693
1178.00,0.0694
1177.00,0.0694
1176.00,0.0695
1175.00,0.0697
1174.00,0.0698
1173.00,0.0700
1172.00,0.0701
1171.00,0.0701
1170.00,0.0701
1169.00,0.0702
1168.00,0.0703
1167.00,0.0704
1166.00,0.0704
1165.00,0.0705
1164.00,0.0706
1163.00,0.0707
1162.00,0.0707
1161.00,0.0706
1160.00,0.0706
1159.00,0.0705
1158.00,0.0705
1157.00,0.0705
1156.00,0.0706
1155.00,0.0708
1154.00,0.0709
1153.00,0.0710
1152.00,0.0711
1151.00,0.0711
1150.00,0.0711
1149.00,0.0712
1148.00,0.0713
1147.00,0.0715
1146.00,0.0717
1145.00,0.0720
1144.00,0.0723
1143.00,0.0726
1142.00,0.0729
1141.00,0.0731
1140.00,0.0732
1139.00,0.0734
1138.00,0.0735
1137.00,0.0738
1136.00,0.0741
1135.00,0.0744
1134.00,0.0748
1133.00,0.0751
1132.00,0.0754
1131.00,0.0757
1130.00,0.0761
1129.00,0.0765
1128.00,0.0770
1127.00,0.0774
1126.00,0.0776
1125.00,0.0778
1124.00,0.0782
1123.00,0.0789
1122.00,0.0796
1121.00,0.0805
1120.00,0.0813
1119.00,0.0820
1118.00,0.0826
1117.00,0.0831
1116.00,0.0836
1115.00,0.0841
1114.00,0.0845
1113.00,0.0847
1112.00,0.0849
1111.00,0.0852
1110.00,0.0855
1109.00,0.0859
1108.00,0.0864
1107.00,0.0867
1106.00,0.0871
1105.00,0.0874
1104.00,0.0877
1103.00,0.0882
1102.00,0.0887
1101.00,0.0891
1100.00,0.0894
1099.00,0.0896
1098.00,0.0898
1097.00,0.0900
1096.00,0.0902
1095.00,0.0903
1094.00,0.0903
1093.00,0.0905
1092.00,0.0908
1091.00,0.0909
1090.00,0.0909
1089.00,0.0908
1088.00,0.0907
1087.00,0.0907
1086.00,0.0908
1085.00,0.0910
1084.00,0.0912
1083.00,0.0913
1082.00,0.0913
1081.00,0.0914
1080.00,0.0915
1079.00,0.0916
1078.00,0.0919
1077.00,0.0920
1076.00,0.0920
1075.00,0.0916
1074.00,0.0913
1073.00,0.0911
1072.00,0.0912
1071.00,0.0913
1070.00,0.0913
1069.00,0.0913
1068.00,0.0913
1067.00,0.0915
1066.00,0.0918
1065.00,0.0922
1064.00,0.0926
1063.00,0.0929
1062.00,0.0929
1061.00,0.0928
1060.00,0.0927
1059.00,0.0928
1058.00,0.0931
1057.00,0.0934
1056.00,0.0937
1055.00,0.0939
1054.00,0.0941
1053.00,0.0943
1052.00,0.0946
1051.00,0.0948
1050.00,0.0950
1049.00,0.0954
1048.00,0.0958
1047.00,0.0961
1046.00,0.0963
1045.00,0.0966
1044.00,0.0969
1043.00,0.0971
1042.00,0.0973
1041.00,0.0974
1040.00,0.0977
1039.00,0.0981
1038.00,0.0985
1037.00,0.0989
1036.00,0.0992
1035.00,0.0994
1034.00,0.0995
1033.00,0.0995
1032.00,0.0993
1031.00,0.0990
1030.00,0.0984
1029.00,0.0976
1028.00,0.0969
1027.00,0.0961
1026.00,0.0955
1025.00,0.0949
1024.00,0.0943
1023.00,0.0938
1022.00,0.0932
1021.00,0.0928
1020.00,0.0924
1019.00,0.0921
1018.00,0.0919
1017.00,0.0918
1016.00,0.0919
1015.00,0.0920
1014.00,0.0922
1013.00,0.0923
1012.00,0.0924
1011.00,0.0925
1010.00,0.0926
1009.00,0.0926
1008.00,0.0925
1007.00,0.0923
1006.00,0.0920
1005.00,0.0917
1004.00,0.0915
1003.00,0.0912
1002.00,0.0907
1001.00,0.0901
1000.00,0.0893
999.00,0.0883
998.00,0.0873
997.00,0.0864
996.00,0.0857
995.00,0.0850
994.00,0.0842
993.00,0.0834
992.00,0.0826
991.00,0.0819
990.00,0.0813
989.00,0.0807
988.00,0.0803
987.00,0.0799
986.00,0.0795
985.00,0.0790
984.00,0.0784
983.00,0.0778
982.00,0.0773
981.00,0.0768
980.00,0.0765
979.00,0.0761
978.00,0.0756
977.00,0.0750
976.00,0.0745
975.00,0.0741
974.00,0.0738
973.00,0.0736
972.00,0.0734
971.00,0.0730
970.00,0.0726
969.00,0.0723
968.00,0.0721
967.00,0.0719
966.00,0.0716
965.00,0.0713
964.00,0.0710
963.00,0.0708
962.00,0.0706
961.00,0.0705
960.00,0.0702
959.00,0.0699
958.00,0.0696
957.00,0.0695
956.00,0.0695
955.00,0.0695
954.00,0.0695
953.00,0.0694
952.00,0.0694
951.00,0.0694
950.00,0.0695
949.00,0.0695
948.00,0.0695
947.00,0.0695
946.00,0.0695
945.00,0.0695
944.00,0.0696
943.00,0.0697
942.00,0.0697
941.00,0.0698
940.00,0.0701
939.00,0.0703
938.00,0.0705
937.00,0.0704
936.00,0.0702
935.00,0.0699
934.00,0.0698
933.00,0.0699
932.00,0.0700
931.00,0.0702
930.00,0.0704
929.00,0.0704
928.00,0.0705
927.00,0.0706
926.00,0.0706
925.00,0.0707
924.00,0.0709
923.00,0.0711
922.00,0.0713
921.00,0.0715
920.00,0.0718
919.00,0.0721
918.00,0.0725
917.00,0.0730
916.00,0.0735
915.00,0.0739
914.00,0.0740
913.00,0.0740
912.00,0.0738
911.00,0.0736
910.00,0.0732
909.00,0.0726
908.00,0.0720
907.00,0.0714
906.00,0.0710
905.00,0.0708
904.00,0.0709
903.00,0.0710
902.00,0.0710
901.00,0.0707
900.00,0.0703
899.00,0.0698
898.00,0.0695
897.00,0.0694
896.00,0.0694
895.00,0.0692
894.00,0.0689
893.00,0.0686
892.00,0.0682
891.00,0.0680
890.00,0.0678
889.00,0.0678
888.00,0.0677
887.00,0.0674
886.00,0.0670
885.00,0.0667
884.00,0.0666
883.00,0.0668
882.00,0.0669
881.00,0.0669
880.00,0.0667
879.00,0.0664
878.00,0.0660
877.00,0.0657
876.00,0.0654
875.00,0.0652
874.00,0.0652
873.00,0.0651
872.00,0.0651
871.00,0.0652
870.00,0.0652
869.00,0.0651
868.00,0.0649
867.00,0.0646
866.00,0.0644
865.00,0.0644
864.00,0.0645
863.00,0.0647
862.00,0.0648
861.00,0.0649
860.00,0.0649
859.00,0.0647
858.00,0.0643
857.00,0.0640
856.00,0.0639
855.00,0.0640
854.00,0.0643
853.00,0.0644
852.00,0.0645
851.00,0.0645
850.00,0.0647
849.00,0.0649
848.00,0.0652
847.00,0.0654
846.00,0.0657
845.00,0.0660
844.00,0.0662
843.00,0.0663
842.00,0.0663
841.00,0.0662
840.00,0.0662
839.00,0.0661
838.00,0.0661
837.00,0.0663
836.00,0.0665
835.00,0.0667
834.00,0.0668
833.00,0.0668
832.00,0.0668
831.00,0.0669
830.00,0.0669
829.00,0.0669
828.00,0.0671
827.00,0.0674
826.00,0.0678
825.00,0.0683
824.00,0.0687
823.00,0.0690
822.00,0.0691
821.00,0.0691
820.00,0.0692
819.00,0.0694
818.00,0.0695
817.00,0.0696
816.00,0.0696
815.00,0.0697
814.00,0.0699
813.00,0.0703
812.00,0.0706
811.00,0.0710
810.00,0.0714
809.00,0.0718
808.00,0.0722
807.00,0.0725
806.00,0.0727
805.00,0.0730
804.00,0.0734
803.00,0.0740
802.00,0.0747
801.00,0.0755
800.00,0.0762
799.00,0.0768
798.00,0.0770
797.00,0.0770
796.00,0.0769
795.00,0.0767
794.00,0.0765
793.00,0.0763
792.00,0.0763
791.00,0.0764
790.00,0.0766
789.00,0.0766
788.00,0.0765
787.00,0.0765
786.00,0.0767
785.00,0.0770
784.00,0.0774
783.00,0.0776
782.00,0.0776
781.00,0.0776
780.00,0.0775
779.00,0.0775
778.00,0.0775
777.00,0.0775
776.00,0.0776
775.00,0.0775
774.00,0.0772
773.00,0.0768
772.00,0.0765
771.00,0.0763
770.00,0.0763
769.00,0.0763
768.00,0.0763
767.00,0.0762
766.00,0.0761
765.00,0.0761
764.00,0.0761
763.00,0.0760
762.00,0.0759
761.00,0.0758
760.00,0.0759
759.00,0.0763
758.00,0.0768
757.00,0.0771
756.00,0.0772
755.00,0.0771
754.00,0.0769
753.00,0.0768
752.00,0.0768
751.00,0.0769
750.00,0.0770
749.00,0.0771
748.00,0.0772
747.00,0.0772
746.00,0.0771
745.00,0.0769
744.00,0.0767
743.00,0.0766
742.00,0.0765
741.00,0.0765
740.00,0.0763
739.00,0.0761
738.00,0.0759
737.00,0.0758
736.00,0.0757
735.00,0.0756
734.00,0.0756
733.00,0.0756
732.00,0.0757
731.00,0.0758
730.00,0.0759
729.00,0.0761
728.00,0.0764
727.00,0.0767
726.00,0.0770
725.00,0.0771
724.00,0.0771
723.00,0.0769
722.00,0.0768
721.00,0.0769
720.00,0.0770
719.00,0.0771
718.00,0.0771
717.00,0.0771
716.00,0.0772
715.00,0.0772
714.00,0.0773
713.00,0.0776
712.00,0.0781
711.00,0.0784
710.00,0.0785
709.00,0.0786
708.00,0.0788
707.00,0.0792
706.00,0.0796
705.00,0.0802
704.00,0.0809
703.00,0.0815
702.00,0.0818
701.00,0.0819
700.00,0.0822
699.00,0.0827
698.00,0.0833
697.00,0.0837
696.00,0.0839
695.00,0.0840
694.00,0.0843
693.00,0.0845
692.00,0.0846
691.00,0.0846
690.00,0.0845
689.00,0.0846
688.00,0.0846
687.00,0.0844
686.00,0.0840
685.00,0.0836
684.00,0.0833
683.00,0.0830
682.00,0.0827
681.00,0.0825
680.00,0.0825
679.00,0.0826
678.00,0.0827
677.00,0.0831
676.00,0.0835
675.00,0.0838
674.00,0.0839
673.00,0.0839
672.00,0.0837
671.00,0.0836
670.00,0.0836
669.00,0.0841
668.00,0.0848
667.00,0.0850
666.00,0.0846
665.00,0.0842
664.00,0.0840
663.00,0.0839
662.00,0.0838
661.00,0.0834
660.00,0.0829
659.00,0.0826
658.00,0.0827
657.00,0.0832
656.00,0.0839
655.00,0.0841
654.00,0.0841
653.00,0.0833
652.00,0.0828
651.00,0.0830
650.00,0.0833
