Created as New Dataset,Monday, April 03 2023
cm-1,A
4000.00,0.0371
3999.00,0.0371
3998.00,0.0370
3997.00,0.0370
3996.00,0.0370
3995.00,0.0369
3994.00,0.0369
3993.00,0.0369
3992.00,0.0369
3991.00,0.0369
3990.00,0.0369
3989.00,0.0368
3988.00,0.0368
3987.00,0.0368
3986.00,0.0368
3985.00,0.0369
3984.00,0.0369
3983.00,0.0369
3982.00,0.0369
3981.00,0.0369
3980.00,0.0368
3979.00,0.0368
3978.00,0.0368
3977.00,0.0367
3976.00,0.0367
3975.00,0.0366
3974.00,0.0366
3973.00,0.0366
3972.00,0.0367
3971.00,0.0368
3970.00,0.0368
3969.00,0.0368
3968.00,0.0368
3967.00,0.0367
3966.00,0.0367
3965.00,0.0366
3964.00,0.0367
3963.00,0.0368
3962.00,0.0368
3961.00,0.0368
3960.00,0.0367
3959.00,0.0366
3958.00,0.0366
3957.00,0.0366
3956.00,0.0366
3955.00,0.0365
3954.00,0.0364
3953.00,0.0364
3952.00,0.0364
3951.00,0.0364
3950.00,0.0364
3949.00,0.0365
3948.00,0.0365
3947.00,0.0365
3946.00,0.0364
3945.00,0.0364
3944.00,0.0364
3943.00,0.0364
3942.00,0.0363
3941.00,0.0362
3940.00,0.0363
3939.00,0.0364
3938.00,0.0365
3937.00,0.0364
3936.00,0.0363
3935.00,0.0362
3934.00,0.0362
3933.00,0.0362
3932.00,0.0362
3931.00,0.0362
3930.00,0.0362
3929.00,0.0362
3928.00,0.0361
3927.00,0.0362
3926.00,0.0362
3925.00,0.0362
3924.00,0.0361
3923.00,0.0360
3922.00,0.0360
3921.00,0.0360
3920.00,0.0360
3919.00,0.0360
3918.00,0.0362
3917.00,0.0363
3916.00,0.0363
3915.00,0.0363
3914.00,0.0364
3913.00,0.0364
3912.00,0.0364
3911.00,0.0363
3910.00,0.0362
3909.00,0.0360
3908.00,0.0357
3907.00,0.0355
3906.00,0.0353
3905.00,0.0352
3904.00,0.0352
3903.00,0.0351
3902.00,0.0352
3901.00,0.0355
3900.00,0.0357
3899.00,0.0358
3898.00,0.0358
3897.00,0.0357
3896.00,0.0358
3895.00,0.0357
3894.00,0.0357
3893.00,0.0358
3892.00,0.0359
3891.00,0.0357
3890.00,0.0353
3889.00,0.0352
3888.00,0.0353
3887.00,0.0356
3886.00,0.0357
3885.00,0.0355
3884.00,0.0352
3883.00,0.0352
3882.00,0.0354
3881.00,0.0356
3880.00,0.0355
3879.00,0.0353
3878.00,0.0353
3877.00,0.0356
3876.00,0.0358
3875.00,0.0357
3874.00,0.0353
3873.00,0.0349
3872.00,0.0349
3871.00,0.0352
3870.00,0.0353
3869.00,0.0351
3868.00,0.0349
3867.00,0.0350
3866.00,0.0353
3865.00,0.0355
3864.00,0.0356
3863.00,0.0356
3862.00,0.0357
3861.00,0.0357
3860.00,0.0357
3859.00,0.0354
3858.00,0.0349
3857.00,0.0343
3856.00,0.0339
3855.00,0.0340
3854.00,0.0346
3853.00,0.0348
3852.00,0.0346
3851.00,0.0347
3850.00,0.0352
3849.00,0.0356
3848.00,0.0356
3847.00,0.0355
3846.00,0.0354
3845.00,0.0353
3844.00,0.0351
3843.00,0.0349
3842.00,0.0347
3841.00,0.0346
3840.00,0.0348
3839.00,0.0350
3838.00,0.0351
3837.00,0.0350
3836.00,0.0349
3835.00,0.0350
3834.00,0.0352
3833.00,0.0355
3832.00,0.0356
3831.00,0.0355
3830.00,0.0355
3829.00,0.0356
3828.00,0.0356
3827.00,0.0355
3826.00,0.0352
3825.00,0.0349
3824.00,0.0348
3823.00,0.0350
3822.00,0.0353
3821.00,0.0352
3820.00,0.0347
3819.00,0.0345
3818.00,0.0349
3817.00,0.0354
3816.00,0.0357
3815.00,0.0356
3814.00,0.0355
3813.00,0.0357
3812.00,0.0358
3811.00,0.0356
3810.00,0.0353
3809.00,0.0352
3808.00,0.0354
3807.00,0.0354
3806.00,0.0351
3805.00,0.0348
3804.00,0.0350
3803.00,0.0354
3802.00,0.0356
3801.00,0.0354
3800.00,0.0350
3799.00,0.0350
3798.00,0.0354
3797.00,0.0356
3796.00,0.0356
3795.00,0.0355
3794.00,0.0356
3793.00,0.0358
3792.00,0.0359
3791.00,0.0359
3790.00,0.0359
3789.00,0.0358
3788.00,0.0358
3787.00,0.0358
3786.00,0.0359
3785.00,0.0359
3784.00,0.0358
3783.00,0.0356
3782.00,0.0355
3781.00,0.0355
3780.00,0.0356
3779.00,0.0356
3778.00,0.0355
3777.00,0.0355
3776.00,0.0357
3775.00,0.0357
3774.00,0.0355
3773.00,0.0353
3772.00,0.0353
3771.00,0.0353
3770.00,0.0352
3769.00,0.0350
3768.00,0.0350
3767.00,0.0351
3766.00,0.0354
3765.00,0.0354
3764.00,0.0352
3763.00,0.0352
3762.00,0.0352
3761.00,0.0352
3760.00,0.0352
3759.00,0.0350
3758.00,0.0349
3757.00,0.0346
3756.00,0.0344
3755.00,0.0341
3754.00,0.0338
3753.00,0.0337
3752.00,0.0338
3751.00,0.0341
3750.00,0.0341
3749.00,0.0339
3748.00,0.0338
3747.00,0.0340
3746.00,0.0344
3745.00,0.0347
3744.00,0.0344
3743.00,0.0339
3742.00,0.0340
3741.00,0.0344
3740.00,0.0345
3739.00,0.0343
3738.00,0.0340
3737.00,0.0340
3736.00,0.0340
3735.00,0.0339
3734.00,0.0338
3733.00,0.0340
3732.00,0.0341
3731.00,0.0342
3730.00,0.0343
3729.00,0.0346
3728.00,0.0348
3727.00,0.0348
3726.00,0.0347
3725.00,0.0346
3724.00,0.0346
3723.00,0.0347
3722.00,0.0348
3721.00,0.0349
3720.00,0.0351
3719.00,0.0353
3718.00,0.0353
3717.00,0.0351
3716.00,0.0349
3715.00,0.0346
3714.00,0.0345
3713.00,0.0346
3712.00,0.0348
3711.00,0.0349
3710.00,0.0348
3709.00,0.0349
3708.00,0.0351
3707.00,0.0354
3706.00,0.0356
3705.00,0.0358
3704.00,0.0359
3703.00,0.0360
3702.00,0.0361
3701.00,0.0361
3700.00,0.0361
3699.00,0.0363
3698.00,0.0366
3697.00,0.0367
3696.00,0.0366
3695.00,0.0364
3694.00,0.0362
3693.00,0.0360
3692.00,0.0358
3691.00,0.0360
3690.00,0.0363
3689.00,0.0365
3688.00,0.0364
3687.00,0.0363
3686.00,0.0364
3685.00,0.0367
3684.00,0.0367
3683.00,0.0366
3682.00,0.0363
3681.00,0.0360
3680.00,0.0354
3679.00,0.0348
3678.00,0.0344
3677.00,0.0345
3676.00,0.0348
3675.00,0.0346
3674.00,0.0342
3673.00,0.0342
3672.00,0.0348
3671.00,0.0353
3670.00,0.0356
3669.00,0.0355
3668.00,0.0355
3667.00,0.0357
3666.00,0.0360
3665.00,0.0363
3664.00,0.0364
3663.00,0.0364
3662.00,0.0364
3661.00,0.0364
3660.00,0.0363
3659.00,0.0363
3658.00,0.0365
3657.00,0.0366
3656.00,0.0366
3655.00,0.0363
3654.00,0.0361
3653.00,0.0359
3652.00,0.0357
3651.00,0.0355
3650.00,0.0356
3649.00,0.0359
3648.00,0.0359
3647.00,0.0360
3646.00,0.0362
3645.00,0.0366
3644.00,0.0370
3643.00,0.0372
3642.00,0.0373
3641.00,0.0373
3640.00,0.0373
3639.00,0.0372
3638.00,0.0372
3637.00,0.0371
3636.00,0.0371
3635.00,0.0371
3634.00,0.0369
3633.00,0.0365
3632.00,0.0362
3631.00,0.0361
3630.00,0.0364
3629.00,0.0368
3628.00,0.0369
3627.00,0.0369
3626.00,0.0372
3625.00,0.0376
3624.00,0.0378
3623.00,0.0377
3622.00,0.0377
3621.00,0.0378
3620.00,0.0379
3619.00,0.0380
3618.00,0.0378
3617.00,0.0377
3616.00,0.0377
3615.00,0.0378
3614.00,0.0378
3613.00,0.0376
3612.00,0.0374
3611.00,0.0374
3610.00,0.0376
3609.00,0.0379
3608.00,0.0381
3607.00,0.0382
3606.00,0.0381
3605.00,0.0381
3604.00,0.0381
3603.00,0.0381
3602.00,0.0382
3601.00,0.0383
3600.00,0.0383
3599.00,0.0382
3598.00,0.0381
3597.00,0.0381
3596.00,0.0381
3595.00,0.0382
3594.00,0.0382
3593.00,0.0381
3592.00,0.0380
3591.00,0.0379
3590.00,0.0378
3589.00,0.0380
3588.00,0.0382
3587.00,0.0384
3586.00,0.0384
3585.00,0.0386
3584.00,0.0388
3583.00,0.0390
3582.00,0.0391
3581.00,0.0391
3580.00,0.0391
3579.00,0.0391
3578.00,0.0391
3577.00,0.0391
3576.00,0.0392
3575.00,0.0393
3574.00,0.0393
3573.00,0.0392
3572.00,0.0390
3571.00,0.0388
3570.00,0.0385
3569.00,0.0384
3568.00,0.0385
3567.00,0.0388
3566.00,0.0389
3565.00,0.0389
3564.00,0.0391
3563.00,0.0393
3562.00,0.0395
3561.00,0.0397
3560.00,0.0398
3559.00,0.0398
3558.00,0.0399
3557.00,0.0400
3556.00,0.0401
3555.00,0.0401
3554.00,0.0402
3553.00,0.0402
3552.00,0.0402
3551.00,0.0402
3550.00,0.0402
3549.00,0.0402
3548.00,0.0402
3547.00,0.0403
3546.00,0.0404
3545.00,0.0405
3544.00,0.0406
3543.00,0.0407
3542.00,0.0407
3541.00,0.0408
3540.00,0.0407
3539.00,0.0406
3538.00,0.0406
3537.00,0.0406
3536.00,0.0406
3535.00,0.0407
3534.00,0.0408
3533.00,0.0409
3532.00,0.0409
3531.00,0.0409
3530.00,0.0409
3529.00,0.0408
3528.00,0.0408
3527.00,0.0408
3526.00,0.0409
3525.00,0.0410
3524.00,0.0412
3523.00,0.0413
3522.00,0.0414
3521.00,0.0414
3520.00,0.0413
3519.00,0.0413
3518.00,0.0413
3517.00,0.0412
3516.00,0.0412
3515.00,0.0412
3514.00,0.0413
3513.00,0.0414
3512.00,0.0416
3511.00,0.0416
3510.00,0.0417
3509.00,0.0417
3508.00,0.0416
3507.00,0.0416
3506.00,0.0416
3505.00,0.0417
3504.00,0.0418
3503.00,0.0419
3502.00,0.0420
3501.00,0.0421
3500.00,0.0421
3499.00,0.0422
3498.00,0.0423
3497.00,0.0424
3496.00,0.0425
3495.00,0.0425
3494.00,0.0425
3493.00,0.0424
3492.00,0.0424
3491.00,0.0424
3490.00,0.0424
3489.00,0.0424
3488.00,0.0424
3487.00,0.0424
3486.00,0.0424
3485.00,0.0424
3484.00,0.0424
3483.00,0.0425
3482.00,0.0426
3481.00,0.0426
3480.00,0.0426
3479.00,0.0427
3478.00,0.0427
3477.00,0.0428
3476.00,0.0429
3475.00,0.0430
3474.00,0.0430
3473.00,0.0431
3472.00,0.0431
3471.00,0.0431
3470.00,0.0431
3469.00,0.0431
3468.00,0.0431
3467.00,0.0431
3466.00,0.0432
3465.00,0.0433
3464.00,0.0434
3463.00,0.0434
3462.00,0.0433
3461.00,0.0432
3460.00,0.0433
3459.00,0.0434
3458.00,0.0435
3457.00,0.0436
3456.00,0.0436
3455.00,0.0435
3454.00,0.0435
3453.00,0.0435
3452.00,0.0436
3451.00,0.0436
3450.00,0.0436
3449.00,0.0437
3448.00,0.0437
3447.00,0.0438
3446.00,0.0438
3445.00,0.0439
3444.00,0.0440
3443.00,0.0440
3442.00,0.0440
3441.00,0.0439
3440.00,0.0438
3439.00,0.0438
3438.00,0.0438
3437.00,0.0439
3436.00,0.0439
3435.00,0.0439
3434.00,0.0439
3433.00,0.0440
3432.00,0.0441
3431.00,0.0442
3430.00,0.0442
3429.00,0.0442
3428.00,0.0441
3427.00,0.0442
3426.00,0.0442
3425.00,0.0443
3424.00,0.0444
3423.00,0.0445
3422.00,0.0445
3421.00,0.0445
3420.00,0.0445
3419.00,0.0445
3418.00,0.0445
3417.00,0.0446
3416.00,0.0445
3415.00,0.0445
3414.00,0.0445
3413.00,0.0446
3412.00,0.0447
3411.00,0.0447
3410.00,0.0448
3409.00,0.0449
3408.00,0.0449
3407.00,0.0449
3406.00,0.0449
3405.00,0.0449
3404.00,0.0448
3403.00,0.0448
3402.00,0.0448
3401.00,0.0449
3400.00,0.0450
3399.00,0.0451
3398.00,0.0451
3397.00,0.0450
3396.00,0.0449
3395.00,0.0448
3394.00,0.0449
3393.00,0.0449
3392.00,0.0450
3391.00,0.0451
3390.00,0.0452
3389.00,0.0452
3388.00,0.0452
3387.00,0.0451
3386.00,0.0451
3385.00,0.0451
3384.00,0.0452
3383.00,0.0452
3382.00,0.0453
3381.00,0.0454
3380.00,0.0455
3379.00,0.0455
3378.00,0.0455
3377.00,0.0455
3376.00,0.0455
3375.00,0.0455
3374.00,0.0455
3373.00,0.0454
3372.00,0.0453
3371.00,0.0453
3370.00,0.0453
3369.00,0.0453
3368.00,0.0454
3367.00,0.0455
3366.00,0.0454
3365.00,0.0454
3364.00,0.0453
3363.00,0.0453
3362.00,0.0454
3361.00,0.0456
3360.00,0.0457
3359.00,0.0457
3358.00,0.0457
3357.00,0.0457
3356.00,0.0457
3355.00,0.0457
3354.00,0.0457
3353.00,0.0457
3352.00,0.0457
3351.00,0.0458
3350.00,0.0458
3349.00,0.0458
3348.00,0.0459
3347.00,0.0459
3346.00,0.0459
3345.00,0.0458
3344.00,0.0458
3343.00,0.0458
3342.00,0.0458
3341.00,0.0458
3340.00,0.0458
3339.00,0.0459
3338.00,0.0459
3337.00,0.0459
3336.00,0.0459
3335.00,0.0458
3334.00,0.0459
3333.00,0.0459
3332.00,0.0459
3331.00,0.0458
3330.00,0.0458
3329.00,0.0457
3328.00,0.0457
3327.00,0.0458
3326.00,0.0458
3325.00,0.0459
3324.00,0.0460
3323.00,0.0460
3322.00,0.0460
3321.00,0.0460
3320.00,0.0459
3319.00,0.0459
3318.00,0.0459
3317.00,0.0459
3316.00,0.0459
3315.00,0.0459
3314.00,0.0459
3313.00,0.0459
3312.00,0.0458
3311.00,0.0459
3310.00,0.0459
3309.00,0.0460
3308.00,0.0461
3307.00,0.0461
3306.00,0.0461
3305.00,0.0460
3304.00,0.0460
3303.00,0.0460
3302.00,0.0460
3301.00,0.0460
3300.00,0.0460
3299.00,0.0460
3298.00,0.0460
3297.00,0.0460
3296.00,0.0461
3295.00,0.0461
3294.00,0.0462
3293.00,0.0461
3292.00,0.0461
3291.00,0.0460
3290.00,0.0460
3289.00,0.0460
3288.00,0.0461
3287.00,0.0461
3286.00,0.0461
3285.00,0.0462
3284.00,0.0462
3283.00,0.0462
3282.00,0.0462
3281.00,0.0461
3280.00,0.0461
3279.00,0.0461
3278.00,0.0461
3277.00,0.0461
3276.00,0.0461
3275.00,0.0461
3274.00,0.0461
3273.00,0.0462
3272.00,0.0462
3271.00,0.0463
3270.00,0.0463
3269.00,0.0464
3268.00,0.0464
3267.00,0.0464
3266.00,0.0463
3265.00,0.0462
3264.00,0.0461
3263.00,0.0461
3262.00,0.0461
3261.00,0.0462
3260.00,0.0462
3259.00,0.0463
3258.00,0.0463
3257.00,0.0462
3256.00,0.0461
3255.00,0.0461
3254.00,0.0461
3253.00,0.0461
3252.00,0.0462
3251.00,0.0462
3250.00,0.0462
3249.00,0.0462
3248.00,0.0462
3247.00,0.0461
3246.00,0.0462
3245.00,0.0462
3244.00,0.0462
3243.00,0.0462
3242.00,0.0462
3241.00,0.0462
3240.00,0.0462
3239.00,0.0462
3238.00,0.0462
3237.00,0.0463
3236.00,0.0464
3235.00,0.0464
3234.00,0.0465
3233.00,0.0465
3232.00,0.0464
3231.00,0.0464
3230.00,0.0462
3229.00,0.0461
3228.00,0.0461
3227.00,0.0461
3226.00,0.0461
3225.00,0.0461
3224.00,0.0461
3223.00,0.0461
3222.00,0.0461
3221.00,0.0461
3220.00,0.0461
3219.00,0.0461
3218.00,0.0461
3217.00,0.0461
3216.00,0.0462
3215.00,0.0462
3214.00,0.0462
3213.00,0.0461
3212.00,0.0461
3211.00,0.0460
3210.00,0.0460
3209.00,0.0460
3208.00,0.0460
3207.00,0.0461
3206.00,0.0461
3205.00,0.0462
3204.00,0.0462
3203.00,0.0462
3202.00,0.0462
3201.00,0.0462
3200.00,0.0461
3199.00,0.0462
3198.00,0.0462
3197.00,0.0461
3196.00,0.0461
3195.00,0.0461
3194.00,0.0460
3193.00,0.0460
3192.00,0.0459
3191.00,0.0459
3190.00,0.0458
3189.00,0.0458
3188.00,0.0457
3187.00,0.0458
3186.00,0.0458
3185.00,0.0458
3184.00,0.0459
3183.00,0.0459
3182.00,0.0460
3181.00,0.0460
3180.00,0.0459
3179.00,0.0458
3178.00,0.0457
3177.00,0.0456
3176.00,0.0456
3175.00,0.0456
3174.00,0.0456
3173.00,0.0457
3172.00,0.0457
3171.00,0.0457
3170.00,0.0457
3169.00,0.0457
3168.00,0.0456
3167.00,0.0456
3166.00,0.0457
3165.00,0.0458
3164.00,0.0458
3163.00,0.0458
3162.00,0.0458
3161.00,0.0457
3160.00,0.0455
3159.00,0.0454
3158.00,0.0452
3157.00,0.0452
3156.00,0.0453
3155.00,0.0454
3154.00,0.0455
3153.00,0.0455
3152.00,0.0455
3151.00,0.0455
3150.00,0.0454
3149.00,0.0454
3148.00,0.0454
3147.00,0.0454
3146.00,0.0453
3145.00,0.0453
3144.00,0.0452
3143.00,0.0452
3142.00,0.0452
3141.00,0.0452
3140.00,0.0452
3139.00,0.0452
3138.00,0.0452
3137.00,0.0452
3136.00,0.0453
3135.00,0.0452
3134.00,0.0452
3133.00,0.0451
3132.00,0.0451
3131.00,0.0451
3130.00,0.0451
3129.00,0.0451
3128.00,0.0451
3127.00,0.0450
3126.00,0.0450
3125.00,0.0450
3124.00,0.0450
3123.00,0.0450
3122.00,0.0449
3121.00,0.0449
3120.00,0.0449
3119.00,0.0449
3118.00,0.0449
3117.00,0.0449
3116.00,0.0449
3115.00,0.0448
3114.00,0.0448
3113.00,0.0448
3112.00,0.0448
3111.00,0.0448
3110.00,0.0447
3109.00,0.0447
3108.00,0.0447
3107.00,0.0447
3106.00,0.0448
3105.00,0.0449
3104.00,0.0449
3103.00,0.0448
3102.00,0.0448
3101.00,0.0447
3100.00,0.0446
3099.00,0.0446
3098.00,0.0446
3097.00,0.0446
3096.00,0.0446
3095.00,0.0447
3094.00,0.0448
3093.00,0.0448
3092.00,0.0448
3091.00,0.0447
3090.00,0.0446
3089.00,0.0445
3088.00,0.0444
3087.00,0.0444
3086.00,0.0444
3085.00,0.0445
3084.00,0.0446
3083.00,0.0446
3082.00,0.0446
3081.00,0.0446
3080.00,0.0446
3079.00,0.0446
3078.00,0.0445
3077.00,0.0445
3076.00,0.0445
3075.00,0.0445
3074.00,0.0445
3073.00,0.0446
3072.00,0.0446
3071.00,0.0446
3070.00,0.0446
3069.00,0.0445
3068.00,0.0445
3067.00,0.0445
3066.00,0.0445
3065.00,0.0444
3064.00,0.0443
3063.00,0.0442
3062.00,0.0442
3061.00,0.0443
3060.00,0.0443
3059.00,0.0443
3058.00,0.0442
3057.00,0.0442
3056.00,0.0442
3055.00,0.0442
3054.00,0.0442
3053.00,0.0442
3052.00,0.0442
3051.00,0.0443
3050.00,0.0443
3049.00,0.0444
3048.00,0.0443
3047.00,0.0443
3046.00,0.0443
3045.00,0.0442
3044.00,0.0442
3043.00,0.0441
3042.00,0.0440
3041.00,0.0439
3040.00,0.0439
3039.00,0.0439
3038.00,0.0439
3037.00,0.0439
3036.00,0.0440
3035.00,0.0440
3034.00,0.0440
3033.00,0.0440
3032.00,0.0440
3031.00,0.0439
3030.00,0.0438
3029.00,0.0437
3028.00,0.0437
3027.00,0.0437
3026.00,0.0437
3025.00,0.0437
3024.00,0.0437
3023.00,0.0436
3022.00,0.0437
3021.00,0.0437
3020.00,0.0436
3019.00,0.0436
3018.00,0.0435
3017.00,0.0435
3016.00,0.0435
3015.00,0.0434
3014.00,0.0434
3013.00,0.0433
3012.00,0.0433
3011.00,0.0432
3010.00,0.0432
3009.00,0.0430
3008.00,0.0429
3007.00,0.0427
3006.00,0.0427
3005.00,0.0427
3004.00,0.0427
3003.00,0.0426
3002.00,0.0425
3001.00,0.0424
3000.00,0.0423
2999.00,0.0422
2998.00,0.0421
2997.00,0.0420
2996.00,0.0419
2995.00,0.0419
2994.00,0.0419
2993.00,0.0418
2992.00,0.0417
2991.00,0.0416
2990.00,0.0416
2989.00,0.0415
2988.00,0.0415
2987.00,0.0414
2986.00,0.0411
2985.00,0.0409
2984.00,0.0406
2983.00,0.0404
2982.00,0.0403
2981.00,0.0403
2980.00,0.0405
2979.00,0.0406
2978.00,0.0408
2977.00,0.0410
2976.00,0.0411
2975.00,0.0412
2974.00,0.0412
2973.00,0.0412
2972.00,0.0412
2971.00,0.0412
2970.00,0.0414
2969.00,0.0415
2968.00,0.0417
2967.00,0.0419
2966.00,0.0419
2965.00,0.0420
2964.00,0.0421
2963.00,0.0422
2962.00,0.0423
2961.00,0.0424
2960.00,0.0425
2959.00,0.0425
2958.00,0.0426
2957.00,0.0427
2956.00,0.0428
2955.00,0.0429
2954.00,0.0430
2953.00,0.0431
2952.00,0.0431
2951.00,0.0431
2950.00,0.0432
2949.00,0.0432
2948.00,0.0432
2947.00,0.0433
2946.00,0.0433
2945.00,0.0434
2944.00,0.0435
2943.00,0.0436
2942.00,0.0438
2941.00,0.0439
2940.00,0.0440
2939.00,0.0440
2938.00,0.0441
2937.00,0.0442
2936.00,0.0443
2935.00,0.0444
2934.00,0.0445
2933.00,0.0446
2932.00,0.0446
2931.00,0.0447
2930.00,0.0448
2929.00,0.0449
2928.00,0.0450
2927.00,0.0451
2926.00,0.0451
2925.00,0.0451
2924.00,0.0451
2923.00,0.0451
2922.00,0.0451
2921.00,0.0450
2920.00,0.0448
2919.00,0.0446
2918.00,0.0445
2917.00,0.0443
2916.00,0.0442
2915.00,0.0441
2914.00,0.0441
2913.00,0.0441
2912.00,0.0441
2911.00,0.0441
2910.00,0.0440
2909.00,0.0439
2908.00,0.0439
2907.00,0.0438
2906.00,0.0437
2905.00,0.0437
2904.00,0.0436
2903.00,0.0435
2902.00,0.0435
2901.00,0.0434
2900.00,0.0434
2899.00,0.0433
2898.00,0.0432
2897.00,0.0432
2896.00,0.0431
2895.00,0.0431
2894.00,0.0430
2893.00,0.0430
2892.00,0.0430
2891.00,0.0429
2890.00,0.0428
2889.00,0.0428
2888.00,0.0427
2887.00,0.0427
2886.00,0.0427
2885.00,0.0426
2884.00,0.0425
2883.00,0.0424
2882.00,0.0424
2881.00,0.0424
2880.00,0.0425
2879.00,0.0426
2878.00,0.0426
2877.00,0.0427
2876.00,0.0427
2875.00,0.0428
2874.00,0.0428
2873.00,0.0428
2872.00,0.0427
2871.00,0.0427
2870.00,0.0427
2869.00,0.0428
2868.00,0.0428
2867.00,0.0428
2866.00,0.0429
2865.00,0.0429
2864.00,0.0430
2863.00,0.0431
2862.00,0.0431
2861.00,0.0432
2860.00,0.0433
2859.00,0.0435
2858.00,0.0437
2857.00,0.0438
2856.00,0.0439
2855.00,0.0439
2854.00,0.0438
2853.00,0.0438
2852.00,0.0437
2851.00,0.0437
2850.00,0.0436
2849.00,0.0435
2848.00,0.0434
2847.00,0.0433
2846.00,0.0432
2845.00,0.0431
2844.00,0.0430
2843.00,0.0429
2842.00,0.0428
2841.00,0.0426
2840.00,0.0425
2839.00,0.0424
2838.00,0.0423
2837.00,0.0423
2836.00,0.0423
2835.00,0.0423
2834.00,0.0423
2833.00,0.0423
2832.00,0.0421
2831.00,0.0420
2830.00,0.0420
2829.00,0.0420
2828.00,0.0420
2827.00,0.0420
2826.00,0.0420
2825.00,0.0420
2824.00,0.0419
2823.00,0.0419
2822.00,0.0418
2821.00,0.0417
2820.00,0.0417
2819.00,0.0416
2818.00,0.0416
2817.00,0.0415
2816.00,0.0415
2815.00,0.0415
2814.00,0.0415
2813.00,0.0415
2812.00,0.0415
2811.00,0.0415
2810.00,0.0415
2809.00,0.0415
2808.00,0.0414
2807.00,0.0414
2806.00,0.0414
2805.00,0.0414
2804.00,0.0414
2803.00,0.0414
2802.00,0.0413
2801.00,0.0413
2800.00,0.0413
2799.00,0.0413
2798.00,0.0413
2797.00,0.0413
2796.00,0.0413
2795.00,0.0412
2794.00,0.0412
2793.00,0.0412
2792.00,0.0412
2791.00,0.0412
2790.00,0.0412
2789.00,0.0412
2788.00,0.0411
2787.00,0.0411
2786.00,0.0411
2785.00,0.0411
2784.00,0.0410
2783.00,0.0410
2782.00,0.0409
2781.00,0.0408
2780.00,0.0408
2779.00,0.0408
2778.00,0.0408
2777.00,0.0409
2776.00,0.0409
2775.00,0.0409
2774.00,0.0409
2773.00,0.0409
2772.00,0.0409
2771.00,0.0408
2770.00,0.0407
2769.00,0.0406
2768.00,0.0406
2767.00,0.0406
2766.00,0.0406
2765.00,0.0406
2764.00,0.0406
2763.00,0.0406
2762.00,0.0406
2761.00,0.0406
2760.00,0.0406
2759.00,0.0406
2758.00,0.0406
2757.00,0.0406
2756.00,0.0405
2755.00,0.0405
2754.00,0.0405
2753.00,0.0405
2752.00,0.0405
2751.00,0.0405
2750.00,0.0405
2749.00,0.0405
2748.00,0.0405
2747.00,0.0405
2746.00,0.0405
2745.00,0.0405
2744.00,0.0405
2743.00,0.0405
2742.00,0.0405
2741.00,0.0405
2740.00,0.0404
2739.00,0.0404
2738.00,0.0403
2737.00,0.0403
2736.00,0.0402
2735.00,0.0402
2734.00,0.0403
2733.00,0.0403
2732.00,0.0403
2731.00,0.0403
2730.00,0.0402
2729.00,0.0402
2728.00,0.0401
2727.00,0.0401
2726.00,0.0401
2725.00,0.0402
2724.00,0.0402
2723.00,0.0402
2722.00,0.0401
2721.00,0.0401
2720.00,0.0401
2719.00,0.0401
2718.00,0.0401
2717.00,0.0402
2716.00,0.0402
2715.00,0.0401
2714.00,0.0401
2713.00,0.0401
2712.00,0.0401
2711.00,0.0400
2710.00,0.0400
2709.00,0.0400
2708.00,0.0400
2707.00,0.0399
2706.00,0.0399
2705.00,0.0399
2704.00,0.0399
2703.00,0.0399
2702.00,0.0399
2701.00,0.0399
2700.00,0.0399
2699.00,0.0399
2698.00,0.0399
2697.00,0.0399
2696.00,0.0399
2695.00,0.0399
2694.00,0.0399
2693.00,0.0399
2692.00,0.0399
2691.00,0.0399
2690.00,0.0399
2689.00,0.0398
2688.00,0.0398
2687.00,0.0398
2686.00,0.0398
2685.00,0.0399
2684.00,0.0399
2683.00,0.0399
2682.00,0.0398
2681.00,0.0398
2680.00,0.0397
2679.00,0.0397
2678.00,0.0396
2677.00,0.0395
2676.00,0.0395
2675.00,0.0395
2674.00,0.0396
2673.00,0.0396
2672.00,0.0396
2671.00,0.0395
2670.00,0.0395
2669.00,0.0395
2668.00,0.0395
2667.00,0.0395
2666.00,0.0395
2665.00,0.0396
2664.00,0.0396
2663.00,0.0396
2662.00,0.0396
2661.00,0.0396
2660.00,0.0396
2659.00,0.0396
2658.00,0.0396
2657.00,0.0396
2656.00,0.0396
2655.00,0.0396
2654.00,0.0396
2653.00,0.0396
2652.00,0.0397
2651.00,0.0397
2650.00,0.0397
2649.00,0.0397
2648.00,0.0396
2647.00,0.0396
2646.00,0.0396
2645.00,0.0396
2644.00,0.0396
2643.00,0.0397
2642.00,0.0397
2641.00,0.0397
2640.00,0.0397
2639.00,0.0397
2638.00,0.0397
2637.00,0.0396
2636.00,0.0396
2635.00,0.0396
2634.00,0.0396
2633.00,0.0396
2632.00,0.0397
2631.00,0.0397
2630.00,0.0396
2629.00,0.0396
2628.00,0.0395
2627.00,0.0395
2626.00,0.0396
2625.00,0.0397
2624.00,0.0397
2623.00,0.0397
2622.00,0.0397
2621.00,0.0397
2620.00,0.0397
2619.00,0.0397
2618.00,0.0397
2617.00,0.0397
2616.00,0.0397
2615.00,0.0396
2614.00,0.0396
2613.00,0.0396
2612.00,0.0397
2611.00,0.0398
2610.00,0.0398
2609.00,0.0397
2608.00,0.0397
2607.00,0.0397
2606.00,0.0397
2605.00,0.0398
2604.00,0.0398
2603.00,0.0398
2602.00,0.0398
2601.00,0.0398
2600.00,0.0397
2599.00,0.0397
2598.00,0.0396
2597.00,0.0396
2596.00,0.0396
2595.00,0.0395
2594.00,0.0395
2593.00,0.0396
2592.00,0.0397
2591.00,0.0397
2590.00,0.0397
2589.00,0.0397
2588.00,0.0397
2587.00,0.0397
2586.00,0.0396
2585.00,0.0395
2584.00,0.0395
2583.00,0.0396
2582.00,0.0396
2581.00,0.0397
2580.00,0.0397
2579.00,0.0397
2578.00,0.0397
2577.00,0.0396
2576.00,0.0395
2575.00,0.0395
2574.00,0.0395
2573.00,0.0395
2572.00,0.0395
2571.00,0.0395
2570.00,0.0395
2569.00,0.0394
2568.00,0.0395
2567.00,0.0397
2566.00,0.0398
2565.00,0.0398
2564.00,0.0398
2563.00,0.0398
2562.00,0.0397
2561.00,0.0397
2560.00,0.0397
2559.00,0.0397
2558.00,0.0397
2557.00,0.0397
2556.00,0.0397
2555.00,0.0397
2554.00,0.0397
2553.00,0.0396
2552.00,0.0396
2551.00,0.0395
2550.00,0.0393
2549.00,0.0392
2548.00,0.0391
2547.00,0.0391
2546.00,0.0392
2545.00,0.0393
2544.00,0.0394
2543.00,0.0394
2542.00,0.0393
2541.00,0.0392
2540.00,0.0391
2539.00,0.0390
2538.00,0.0390
2537.00,0.0390
2536.00,0.0390
2535.00,0.0391
2534.00,0.0392
2533.00,0.0393
2532.00,0.0393
2531.00,0.0393
2530.00,0.0392
2529.00,0.0392
2528.00,0.0391
2527.00,0.0391
2526.00,0.0390
2525.00,0.0390
2524.00,0.0390
2523.00,0.0390
2522.00,0.0390
2521.00,0.0391
2520.00,0.0391
2519.00,0.0392
2518.00,0.0392
2517.00,0.0393
2516.00,0.0393
2515.00,0.0393
2514.00,0.0392
2513.00,0.0391
2512.00,0.0391
2511.00,0.0392
2510.00,0.0392
2509.00,0.0393
2508.00,0.0393
2507.00,0.0392
2506.00,0.0391
2505.00,0.0391
2504.00,0.0391
2503.00,0.0391
2502.00,0.0392
2501.00,0.0392
2500.00,0.0392
2499.00,0.0392
2498.00,0.0392
2497.00,0.0392
2496.00,0.0393
2495.00,0.0393
2494.00,0.0394
2493.00,0.0393
2492.00,0.0393
2491.00,0.0392
2490.00,0.0392
2489.00,0.0392
2488.00,0.0392
2487.00,0.0393
2486.00,0.0393
2485.00,0.0392
2484.00,0.0391
2483.00,0.0391
2482.00,0.0391
2481.00,0.0392
2480.00,0.0392
2479.00,0.0392
2478.00,0.0391
2477.00,0.0390
2476.00,0.0390
2475.00,0.0389
2474.00,0.0389
2473.00,0.0389
2472.00,0.0390
2471.00,0.0390
2470.00,0.0390
2469.00,0.0390
2468.00,0.0390
2467.00,0.0389
2466.00,0.0389
2465.00,0.0389
2464.00,0.0389
2463.00,0.0388
2462.00,0.0388
2461.00,0.0388
2460.00,0.0388
2459.00,0.0389
2458.00,0.0389
2457.00,0.0389
2456.00,0.0390
2455.00,0.0390
2454.00,0.0390
2453.00,0.0391
2452.00,0.0391
2451.00,0.0391
2450.00,0.0390
2449.00,0.0389
2448.00,0.0389
2447.00,0.0388
2446.00,0.0388
2445.00,0.0388
2444.00,0.0388
2443.00,0.0388
2442.00,0.0387
2441.00,0.0387
2440.00,0.0387
2439.00,0.0387
2438.00,0.0387
2437.00,0.0387
2436.00,0.0386
2435.00,0.0386
2434.00,0.0386
2433.00,0.0385
2432.00,0.0385
2431.00,0.0386
2430.00,0.0386
2429.00,0.0386
2428.00,0.0386
2427.00,0.0386
2426.00,0.0386
2425.00,0.0386
2424.00,0.0386
2423.00,0.0386
2422.00,0.0386
2421.00,0.0385
2420.00,0.0385
2419.00,0.0385
2418.00,0.0385
2417.00,0.0385
2416.00,0.0384
2415.00,0.0384
2414.00,0.0384
2413.00,0.0384
2412.00,0.0384
2411.00,0.0384
2410.00,0.0384
2409.00,0.0385
2408.00,0.0385
2407.00,0.0385
2406.00,0.0384
2405.00,0.0384
2404.00,0.0384
2403.00,0.0383
2402.00,0.0383
2401.00,0.0383
2400.00,0.0382
2399.00,0.0382
2398.00,0.0382
2397.00,0.0382
2396.00,0.0381
2395.00,0.0381
2394.00,0.0380
2393.00,0.0380
2392.00,0.0379
2391.00,0.0379
2390.00,0.0379
2389.00,0.0379
2388.00,0.0379
2387.00,0.0379
2386.00,0.0378
2385.00,0.0378
2384.00,0.0377
2383.00,0.0375
2382.00,0.0374
2381.00,0.0374
2380.00,0.0374
2379.00,0.0374
2378.00,0.0373
2377.00,0.0372
2376.00,0.0371
2375.00,0.0371
2374.00,0.0371
2373.00,0.0371
2372.00,0.0371
2371.00,0.0370
2370.00,0.0367
2369.00,0.0364
2368.00,0.0362
2367.00,0.0362
2366.00,0.0364
2365.00,0.0367
2364.00,0.0367
2363.00,0.0366
2362.00,0.0364
2361.00,0.0365
2360.00,0.0367
2359.00,0.0368
2358.00,0.0369
2357.00,0.0368
2356.00,0.0366
2355.00,0.0364
2354.00,0.0363
2353.00,0.0364
2352.00,0.0367
2351.00,0.0369
2350.00,0.0367
2349.00,0.0361
2348.00,0.0352
2347.00,0.0344
2346.00,0.0343
2345.00,0.0348
2344.00,0.0355
2343.00,0.0361
2342.00,0.0366
2341.00,0.0368
2340.00,0.0369
2339.00,0.0368
2338.00,0.0367
2337.00,0.0366
2336.00,0.0366
2335.00,0.0367
2334.00,0.0368
2333.00,0.0369
2332.00,0.0370
2331.00,0.0371
2330.00,0.0373
2329.00,0.0375
2328.00,0.0377
2327.00,0.0379
2326.00,0.0380
2325.00,0.0379
2324.00,0.0377
2323.00,0.0375
2322.00,0.0375
2321.00,0.0377
2320.00,0.0378
2319.00,0.0378
2318.00,0.0378
2317.00,0.0378
2316.00,0.0377
2315.00,0.0376
2314.00,0.0375
2313.00,0.0375
2312.00,0.0376
2311.00,0.0376
2310.00,0.0377
2309.00,0.0378
2308.00,0.0379
2307.00,0.0378
2306.00,0.0377
2305.00,0.0376
2304.00,0.0375
2303.00,0.0373
2302.00,0.0372
2301.00,0.0372
2300.00,0.0372
2299.00,0.0373
2298.00,0.0373
2297.00,0.0373
2296.00,0.0373
2295.00,0.0373
2294.00,0.0374
2293.00,0.0375
2292.00,0.0377
2291.00,0.0378
2290.00,0.0377
2289.00,0.0377
2288.00,0.0376
2287.00,0.0377
2286.00,0.0379
2285.00,0.0380
2284.00,0.0381
2283.00,0.0382
2282.00,0.0381
2281.00,0.0380
2280.00,0.0378
2279.00,0.0377
2278.00,0.0378
2277.00,0.0378
2276.00,0.0377
2275.00,0.0375
2274.00,0.0374
2273.00,0.0374
2272.00,0.0374
2271.00,0.0375
2270.00,0.0375
2269.00,0.0376
2268.00,0.0376
2267.00,0.0376
2266.00,0.0376
2265.00,0.0377
2264.00,0.0378
2263.00,0.0378
2262.00,0.0378
2261.00,0.0378
2260.00,0.0378
2259.00,0.0378
2258.00,0.0376
2257.00,0.0373
2256.00,0.0371
2255.00,0.0371
2254.00,0.0371
2253.00,0.0371
2252.00,0.0372
2251.00,0.0373
2250.00,0.0374
2249.00,0.0374
2248.00,0.0374
2247.00,0.0374
2246.00,0.0375
2245.00,0.0376
2244.00,0.0376
2243.00,0.0376
2242.00,0.0376
2241.00,0.0375
2240.00,0.0374
2239.00,0.0373
2238.00,0.0373
2237.00,0.0373
2236.00,0.0373
2235.00,0.0373
2234.00,0.0374
2233.00,0.0375
2232.00,0.0375
2231.00,0.0373
2230.00,0.0372
2229.00,0.0372
2228.00,0.0373
2227.00,0.0374
2226.00,0.0374
2225.00,0.0374
2224.00,0.0373
2223.00,0.0372
2222.00,0.0371
2221.00,0.0370
2220.00,0.0370
2219.00,0.0371
2218.00,0.0372
2217.00,0.0371
2216.00,0.0371
2215.00,0.0371
2214.00,0.0373
2213.00,0.0374
2212.00,0.0373
2211.00,0.0371
2210.00,0.0370
2209.00,0.0370
2208.00,0.0371
2207.00,0.0372
2206.00,0.0373
2205.00,0.0374
2204.00,0.0373
2203.00,0.0372
2202.00,0.0372
2201.00,0.0371
2200.00,0.0371
2199.00,0.0370
2198.00,0.0369
2197.00,0.0369
2196.00,0.0369
2195.00,0.0370
2194.00,0.0370
2193.00,0.0369
2192.00,0.0368
2191.00,0.0366
2190.00,0.0362
2189.00,0.0360
2188.00,0.0360
2187.00,0.0363
2186.00,0.0367
2185.00,0.0370
2184.00,0.0369
2183.00,0.0367
2182.00,0.0365
2181.00,0.0365
2180.00,0.0367
2179.00,0.0370
2178.00,0.0371
2177.00,0.0372
2176.00,0.0371
2175.00,0.0369
2174.00,0.0368
2173.00,0.0367
2172.00,0.0368
2171.00,0.0370
2170.00,0.0372
2169.00,0.0375
2168.00,0.0375
2167.00,0.0374
2166.00,0.0373
2165.00,0.0374
2164.00,0.0376
2163.00,0.0379
2162.00,0.0380
2161.00,0.0379
2160.00,0.0373
2159.00,0.0367
2158.00,0.0361
2157.00,0.0357
2156.00,0.0356
2155.00,0.0358
2154.00,0.0361
2153.00,0.0364
2152.00,0.0364
2151.00,0.0362
2150.00,0.0359
2149.00,0.0357
2148.00,0.0357
2147.00,0.0359
2146.00,0.0362
2145.00,0.0364
2144.00,0.0365
2143.00,0.0365
2142.00,0.0365
2141.00,0.0365
2140.00,0.0365
2139.00,0.0364
2138.00,0.0364
2137.00,0.0363
2136.00,0.0362
2135.00,0.0361
2134.00,0.0361
2133.00,0.0361
2132.00,0.0361
2131.00,0.0360
2130.00,0.0360
2129.00,0.0362
2128.00,0.0363
2127.00,0.0365
2126.00,0.0365
2125.00,0.0364
2124.00,0.0362
2123.00,0.0361
2122.00,0.0359
2121.00,0.0359
2120.00,0.0358
2119.00,0.0358
2118.00,0.0358
2117.00,0.0358
2116.00,0.0357
2115.00,0.0355
2114.00,0.0353
2113.00,0.0353
2112.00,0.0354
2111.00,0.0356
2110.00,0.0358
2109.00,0.0360
2108.00,0.0362
2107.00,0.0363
2106.00,0.0364
2105.00,0.0363
2104.00,0.0361
2103.00,0.0359
2102.00,0.0359
2101.00,0.0358
2100.00,0.0358
2099.00,0.0356
2098.00,0.0354
2097.00,0.0354
2096.00,0.0355
2095.00,0.0356
2094.00,0.0358
2093.00,0.0359
2092.00,0.0359
2091.00,0.0358
2090.00,0.0356
2089.00,0.0355
2088.00,0.0355
2087.00,0.0355
2086.00,0.0356
2085.00,0.0357
2084.00,0.0359
2083.00,0.0359
2082.00,0.0358
2081.00,0.0357
2080.00,0.0357
2079.00,0.0357
2078.00,0.0357
2077.00,0.0357
2076.00,0.0357
2075.00,0.0358
2074.00,0.0357
2073.00,0.0357
2072.00,0.0357
2071.00,0.0358
2070.00,0.0358
2069.00,0.0357
2068.00,0.0354
2067.00,0.0353
2066.00,0.0352
2065.00,0.0353
2064.00,0.0355
2063.00,0.0357
2062.00,0.0358
2061.00,0.0358
2060.00,0.0356
2059.00,0.0354
2058.00,0.0353
2057.00,0.0354
2056.00,0.0355
2055.00,0.0355
2054.00,0.0355
2053.00,0.0356
2052.00,0.0356
2051.00,0.0355
2050.00,0.0353
2049.00,0.0351
2048.00,0.0351
2047.00,0.0352
2046.00,0.0355
2045.00,0.0359
2044.00,0.0361
2043.00,0.0362
2042.00,0.0361
2041.00,0.0358
2040.00,0.0354
2039.00,0.0352
2038.00,0.0353
2037.00,0.0356
2036.00,0.0359
2035.00,0.0360
2034.00,0.0359
2033.00,0.0359
2032.00,0.0361
2031.00,0.0363
2030.00,0.0364
2029.00,0.0362
2028.00,0.0359
2027.00,0.0356
2026.00,0.0354
2025.00,0.0352
2024.00,0.0350
2023.00,0.0347
2022.00,0.0346
2021.00,0.0346
2020.00,0.0345
2019.00,0.0344
2018.00,0.0341
2017.00,0.0339
2016.00,0.0340
2015.00,0.0342
2014.00,0.0345
2013.00,0.0346
2012.00,0.0346
2011.00,0.0347
2010.00,0.0348
2009.00,0.0350
2008.00,0.0350
2007.00,0.0349
2006.00,0.0348
2005.00,0.0346
2004.00,0.0346
2003.00,0.0347
2002.00,0.0350
2001.00,0.0352
2000.00,0.0351
1999.00,0.0348
1998.00,0.0346
1997.00,0.0347
1996.00,0.0348
1995.00,0.0351
1994.00,0.0353
1993.00,0.0354
1992.00,0.0353
1991.00,0.0351
1990.00,0.0348
1989.00,0.0345
1988.00,0.0345
1987.00,0.0345
1986.00,0.0345
1985.00,0.0346
1984.00,0.0346
1983.00,0.0347
1982.00,0.0348
1981.00,0.0348
1980.00,0.0347
1979.00,0.0344
1978.00,0.0341
1977.00,0.0338
1976.00,0.0338
1975.00,0.0340
1974.00,0.0344
1973.00,0.0345
1972.00,0.0343
1971.00,0.0340
1970.00,0.0338
1969.00,0.0338
1968.00,0.0339
1967.00,0.0339
1966.00,0.0337
1965.00,0.0336
1964.00,0.0336
1963.00,0.0337
1962.00,0.0337
1961.00,0.0337
1960.00,0.0338
1959.00,0.0339
1958.00,0.0340
1957.00,0.0339
1956.00,0.0337
1955.00,0.0336
1954.00,0.0336
1953.00,0.0338
1952.00,0.0338
1951.00,0.0336
1950.00,0.0334
1949.00,0.0332
1948.00,0.0332
1947.00,0.0332
1946.00,0.0333
1945.00,0.0333
1944.00,0.0331
1943.00,0.0329
1942.00,0.0328
1941.00,0.0328
1940.00,0.0328
1939.00,0.0327
1938.00,0.0325
1937.00,0.0325
1936.00,0.0324
1935.00,0.0324
1934.00,0.0323
1933.00,0.0323
1932.00,0.0323
1931.00,0.0324
1930.00,0.0326
1929.00,0.0328
1928.00,0.0329
1927.00,0.0330
1926.00,0.0329
1925.00,0.0329
1924.00,0.0328
1923.00,0.0327
1922.00,0.0326
1921.00,0.0326
1920.00,0.0326
1919.00,0.0324
1918.00,0.0323
1917.00,0.0322
1916.00,0.0323
1915.00,0.0324
1914.00,0.0325
1913.00,0.0325
1912.00,0.0324
1911.00,0.0322
1910.00,0.0320
1909.00,0.0318
1908.00,0.0317
1907.00,0.0316
1906.00,0.0316
1905.00,0.0317
1904.00,0.0318
1903.00,0.0319
1902.00,0.0318
1901.00,0.0318
1900.00,0.0317
1899.00,0.0318
1898.00,0.0318
1897.00,0.0318
1896.00,0.0316
1895.00,0.0314
1894.00,0.0312
1893.00,0.0312
1892.00,0.0313
1891.00,0.0313
1890.00,0.0313
1889.00,0.0312
1888.00,0.0311
1887.00,0.0310
1886.00,0.0310
1885.00,0.0310
1884.00,0.0310
1883.00,0.0310
1882.00,0.0310
1881.00,0.0311
1880.00,0.0311
1879.00,0.0310
1878.00,0.0309
1877.00,0.0308
1876.00,0.0307
1875.00,0.0307
1874.00,0.0308
1873.00,0.0308
1872.00,0.0309
1871.00,0.0308
1870.00,0.0307
1869.00,0.0306
1868.00,0.0304
1867.00,0.0303
1866.00,0.0304
1865.00,0.0304
1864.00,0.0304
1863.00,0.0302
1862.00,0.0301
1861.00,0.0300
1860.00,0.0300
1859.00,0.0300
1858.00,0.0300
1857.00,0.0300
1856.00,0.0300
1855.00,0.0300
1854.00,0.0299
1853.00,0.0298
1852.00,0.0298
1851.00,0.0298
1850.00,0.0298
1849.00,0.0298
1848.00,0.0297
1847.00,0.0297
1846.00,0.0297
1845.00,0.0297
1844.00,0.0294
1843.00,0.0292
1842.00,0.0292
1841.00,0.0293
1840.00,0.0293
1839.00,0.0292
1838.00,0.0291
1837.00,0.0291
1836.00,0.0291
1835.00,0.0291
1834.00,0.0291
1833.00,0.0292
1832.00,0.0292
1831.00,0.0292
1830.00,0.0290
1829.00,0.0288
1828.00,0.0287
1827.00,0.0288
1826.00,0.0288
1825.00,0.0287
1824.00,0.0285
1823.00,0.0284
1822.00,0.0284
1821.00,0.0284
1820.00,0.0284
1819.00,0.0283
1818.00,0.0282
1817.00,0.0281
1816.00,0.0281
1815.00,0.0280
1814.00,0.0279
1813.00,0.0279
1812.00,0.0278
1811.00,0.0277
1810.00,0.0277
1809.00,0.0277
1808.00,0.0277
1807.00,0.0277
1806.00,0.0277
1805.00,0.0277
1804.00,0.0277
1803.00,0.0276
1802.00,0.0276
1801.00,0.0275
1800.00,0.0274
1799.00,0.0273
1798.00,0.0274
1797.00,0.0274
1796.00,0.0275
1795.00,0.0275
1794.00,0.0275
1793.00,0.0275
1792.00,0.0274
1791.00,0.0273
1790.00,0.0273
1789.00,0.0274
1788.00,0.0275
1787.00,0.0276
1786.00,0.0277
1785.00,0.0277
1784.00,0.0277
1783.00,0.0278
1782.00,0.0278
1781.00,0.0277
1780.00,0.0276
1779.00,0.0276
1778.00,0.0278
1777.00,0.0280
1776.00,0.0281
1775.00,0.0282
1774.00,0.0282
1773.00,0.0281
1772.00,0.0279
1771.00,0.0278
1770.00,0.0281
1769.00,0.0285
1768.00,0.0287
1767.00,0.0287
1766.00,0.0287
1765.00,0.0288
1764.00,0.0290
1763.00,0.0290
1762.00,0.0289
1761.00,0.0288
1760.00,0.0289
1759.00,0.0291
1758.00,0.0292
1757.00,0.0292
1756.00,0.0292
1755.00,0.0294
1754.00,0.0297
1753.00,0.0298
1752.00,0.0298
1751.00,0.0297
1750.00,0.0297
1749.00,0.0298
1748.00,0.0300
1747.00,0.0302
1746.00,0.0304
1745.00,0.0306
1744.00,0.0309
1743.00,0.0311
1742.00,0.0314
1741.00,0.0317
1740.00,0.0320
1739.00,0.0321
1738.00,0.0322
1737.00,0.0325
1736.00,0.0329
1735.00,0.0331
1734.00,0.0330
1733.00,0.0328
1732.00,0.0329
1731.00,0.0333
1730.00,0.0335
1729.00,0.0337
1728.00,0.0338
1727.00,0.0340
1726.00,0.0342
1725.00,0.0344
1724.00,0.0346
1723.00,0.0348
1722.00,0.0348
1721.00,0.0349
1720.00,0.0350
1719.00,0.0349
1718.00,0.0350
1717.00,0.0351
1716.00,0.0353
1715.00,0.0357
1714.00,0.0361
1713.00,0.0364
1712.00,0.0366
1711.00,0.0367
1710.00,0.0367
1709.00,0.0368
1708.00,0.0368
1707.00,0.0369
1706.00,0.0368
1705.00,0.0368
1704.00,0.0369
1703.00,0.0372
1702.00,0.0374
1701.00,0.0375
1700.00,0.0373
1699.00,0.0371
1698.00,0.0371
1697.00,0.0373
1696.00,0.0372
1695.00,0.0369
1694.00,0.0369
1693.00,0.0371
1692.00,0.0373
1691.00,0.0372
1690.00,0.0372
1689.00,0.0372
1688.00,0.0372
1687.00,0.0372
1686.00,0.0370
1685.00,0.0369
1684.00,0.0368
1683.00,0.0366
1682.00,0.0369
1681.00,0.0372
1680.00,0.0373
1679.00,0.0374
1678.00,0.0376
1677.00,0.0378
1676.00,0.0381
1675.00,0.0382
1674.00,0.0382
1673.00,0.0382
1672.00,0.0382
1671.00,0.0383
1670.00,0.0384
1669.00,0.0385
1668.00,0.0385
1667.00,0.0387
1666.00,0.0388
1665.00,0.0389
1664.00,0.0389
1663.00,0.0390
1662.00,0.0391
1661.00,0.0393
1660.00,0.0395
1659.00,0.0398
1658.00,0.0399
1657.00,0.0399
1656.00,0.0398
1655.00,0.0397
1654.00,0.0399
1653.00,0.0401
1652.00,0.0398
1651.00,0.0400
1650.00,0.0403
1649.00,0.0405
1648.00,0.0406
1647.00,0.0407
1646.00,0.0409
1645.00,0.0412
1644.00,0.0416
1643.00,0.0419
1642.00,0.0420
1641.00,0.0420
1640.00,0.0420
1639.00,0.0420
1638.00,0.0420
1637.00,0.0423
1636.00,0.0428
1635.00,0.0432
1634.00,0.0433
1633.00,0.0434
1632.00,0.0434
1631.00,0.0434
1630.00,0.0435
1629.00,0.0436
1628.00,0.0438
1627.00,0.0440
1626.00,0.0442
1625.00,0.0445
1624.00,0.0448
1623.00,0.0450
1622.00,0.0451
1621.00,0.0452
1620.00,0.0453
1619.00,0.0454
1618.00,0.0454
1617.00,0.0455
1616.00,0.0456
1615.00,0.0458
1614.00,0.0462
1613.00,0.0464
1612.00,0.0466
1611.00,0.0467
1610.00,0.0467
1609.00,0.0468
1608.00,0.0469
1607.00,0.0471
1606.00,0.0473
1605.00,0.0476
1604.00,0.0477
1603.00,0.0478
1602.00,0.0479
1601.00,0.0479
1600.00,0.0480
1599.00,0.0481
1598.00,0.0483
1597.00,0.0485
1596.00,0.0487
1595.00,0.0489
1594.00,0.0490
1593.00,0.0492
1592.00,0.0493
1591.00,0.0494
1590.00,0.0494
1589.00,0.0496
1588.00,0.0498
1587.00,0.0500
1586.00,0.0502
1585.00,0.0503
1584.00,0.0504
1583.00,0.0506
1582.00,0.0507
1581.00,0.0506
1580.00,0.0506
1579.00,0.0506
1578.00,0.0507
1577.00,0.0509
1576.00,0.0510
1575.00,0.0510
1574.00,0.0511
1573.00,0.0511
1572.00,0.0511
1571.00,0.0512
1570.00,0.0514
1569.00,0.0515
1568.00,0.0516
1567.00,0.0517
1566.00,0.0517
1565.00,0.0515
1564.00,0.0513
1563.00,0.0511
1562.00,0.0509
1561.00,0.0505
1560.00,0.0507
1559.00,0.0517
1558.00,0.0517
1557.00,0.0517
1556.00,0.0517
1555.00,0.0517
1554.00,0.0516
1553.00,0.0515
1552.00,0.0514
1551.00,0.0514
1550.00,0.0513
1549.00,0.0511
1548.00,0.0509
1547.00,0.0507
1546.00,0.0505
1545.00,0.0502
1544.00,0.0499
1543.00,0.0496
1542.00,0.0493
1541.00,0.0493
1540.00,0.0494
1539.00,0.0492
1538.00,0.0490
1537.00,0.0491
1536.00,0.0490
1535.00,0.0489
1534.00,0.0489
1533.00,0.0489
1532.00,0.0488
1531.00,0.0487
1530.00,0.0485
1529.00,0.0483
1528.00,0.0481
1527.00,0.0479
1526.00,0.0477
1525.00,0.0475
1524.00,0.0473
1523.00,0.0471
1522.00,0.0469
1521.00,0.0469
1520.00,0.0469
1519.00,0.0469
1518.00,0.0469
1517.00,0.0468
1516.00,0.0466
1515.00,0.0465
1514.00,0.0464
1513.00,0.0463
1512.00,0.0461
1511.00,0.0458
1510.00,0.0455
1509.00,0.0452
1508.00,0.0451
1507.00,0.0453
1506.00,0.0452
1505.00,0.0452
1504.00,0.0452
1503.00,0.0451
1502.00,0.0450
1501.00,0.0447
1500.00,0.0446
1499.00,0.0446
1498.00,0.0446
1497.00,0.0447
1496.00,0.0448
1495.00,0.0447
1494.00,0.0445
1493.00,0.0443
1492.00,0.0442
1491.00,0.0441
1490.00,0.0441
1489.00,0.0441
1488.00,0.0441
1487.00,0.0441
1486.00,0.0441
1485.00,0.0440
1484.00,0.0439
1483.00,0.0438
1482.00,0.0437
1481.00,0.0437
1480.00,0.0437
1479.00,0.0437
1478.00,0.0436
1477.00,0.0437
1476.00,0.0437
1475.00,0.0437
1474.00,0.0438
1473.00,0.0440
1472.00,0.0443
1471.00,0.0445
1470.00,0.0447
1469.00,0.0449
1468.00,0.0449
1467.00,0.0450
1466.00,0.0450
1465.00,0.0450
1464.00,0.0450
1463.00,0.0450
1462.00,0.0448
1461.00,0.0446
1460.00,0.0445
1459.00,0.0445
1458.00,0.0448
1457.00,0.0453
1456.00,0.0454
1455.00,0.0455
1454.00,0.0455
1453.00,0.0454
1452.00,0.0454
1451.00,0.0455
1450.00,0.0456
1449.00,0.0457
1448.00,0.0459
1447.00,0.0461
1446.00,0.0461
1445.00,0.0461
1444.00,0.0461
1443.00,0.0461
1442.00,0.0460
1441.00,0.0460
1440.00,0.0461
1439.00,0.0462
1438.00,0.0465
1437.00,0.0469
1436.00,0.0471
1435.00,0.0470
1434.00,0.0469
1433.00,0.0468
1432.00,0.0468
1431.00,0.0467
1430.00,0.0467
1429.00,0.0467
1428.00,0.0467
1427.00,0.0468
1426.00,0.0468
1425.00,0.0468
1424.00,0.0469
1423.00,0.0470
1422.00,0.0471
1421.00,0.0472
1420.00,0.0473
1419.00,0.0476
1418.00,0.0477
1417.00,0.0478
1416.00,0.0479
1415.00,0.0479
1414.00,0.0478
1413.00,0.0477
1412.00,0.0476
1411.00,0.0476
1410.00,0.0476
1409.00,0.0476
1408.00,0.0476
1407.00,0.0476
1406.00,0.0476
1405.00,0.0476
1404.00,0.0476
1403.00,0.0476
1402.00,0.0476
1401.00,0.0475
1400.00,0.0474
1399.00,0.0474
1398.00,0.0474
1397.00,0.0474
1396.00,0.0476
1395.00,0.0477
1394.00,0.0478
1393.00,0.0478
1392.00,0.0478
1391.00,0.0477
1390.00,0.0477
1389.00,0.0478
1388.00,0.0479
1387.00,0.0481
1386.00,0.0481
1385.00,0.0481
1384.00,0.0480
1383.00,0.0480
1382.00,0.0481
1381.00,0.0483
1380.00,0.0484
1379.00,0.0485
1378.00,0.0486
1377.00,0.0487
1376.00,0.0488
1375.00,0.0489
1374.00,0.0490
1373.00,0.0491
1372.00,0.0492
1371.00,0.0492
1370.00,0.0492
1369.00,0.0492
1368.00,0.0492
1367.00,0.0492
1366.00,0.0492
1365.00,0.0491
1364.00,0.0492
1363.00,0.0493
1362.00,0.0495
1361.00,0.0496
1360.00,0.0496
1359.00,0.0496
1358.00,0.0495
1357.00,0.0496
1356.00,0.0496
1355.00,0.0496
1354.00,0.0496
1353.00,0.0496
1352.00,0.0496
1351.00,0.0495
1350.00,0.0495
1349.00,0.0494
1348.00,0.0494
1347.00,0.0494
1346.00,0.0494
1345.00,0.0494
1344.00,0.0493
1343.00,0.0493
1342.00,0.0493
1341.00,0.0494
1340.00,0.0495
1339.00,0.0496
1338.00,0.0497
1337.00,0.0497
1336.00,0.0497
1335.00,0.0496
1334.00,0.0496
1333.00,0.0496
1332.00,0.0495
1331.00,0.0495
1330.00,0.0495
1329.00,0.0495
1328.00,0.0495
1327.00,0.0495
1326.00,0.0495
1325.00,0.0495
1324.00,0.0495
1323.00,0.0496
1322.00,0.0496
1321.00,0.0497
1320.00,0.0498
1319.00,0.0498
1318.00,0.0498
1317.00,0.0497
1316.00,0.0496
1315.00,0.0496
1314.00,0.0496
1313.00,0.0496
1312.00,0.0497
1311.00,0.0498
1310.00,0.0498
1309.00,0.0499
1308.00,0.0499
1307.00,0.0498
1306.00,0.0498
1305.00,0.0498
1304.00,0.0499
1303.00,0.0500
1302.00,0.0501
1301.00,0.0501
1300.00,0.0501
1299.00,0.0500
1298.00,0.0499
1297.00,0.0499
1296.00,0.0498
1295.00,0.0499
1294.00,0.0500
1293.00,0.0501
1292.00,0.0502
1291.00,0.0503
1290.00,0.0503
1289.00,0.0503
1288.00,0.0503
1287.00,0.0503
1286.00,0.0504
1285.00,0.0505
1284.00,0.0506
1283.00,0.0507
1282.00,0.0508
1281.00,0.0507
1280.00,0.0506
1279.00,0.0506
1278.00,0.0506
1277.00,0.0507
1276.00,0.0507
1275.00,0.0508
1274.00,0.0509
1273.00,0.0509
1272.00,0.0509
1271.00,0.0509
1270.00,0.0510
1269.00,0.0510
1268.00,0.0511
1267.00,0.0513
1266.00,0.0513
1265.00,0.0514
1264.00,0.0514
1263.00,0.0514
1262.00,0.0515
1261.00,0.0516
1260.00,0.0517
1259.00,0.0518
1258.00,0.0520
1257.00,0.0520
1256.00,0.0521
1255.00,0.0521
1254.00,0.0522
1253.00,0.0524
1252.00,0.0525
1251.00,0.0526
1250.00,0.0526
1249.00,0.0526
1248.00,0.0528
1247.00,0.0530
1246.00,0.0532
1245.00,0.0534
1244.00,0.0535
1243.00,0.0536
1242.00,0.0536
1241.00,0.0536
1240.00,0.0536
1239.00,0.0537
1238.00,0.0538
1237.00,0.0540
1236.00,0.0541
1235.00,0.0542
1234.00,0.0543
1233.00,0.0543
1232.00,0.0543
1231.00,0.0544
1230.00,0.0544
1229.00,0.0545
1228.00,0.0546
1227.00,0.0546
1226.00,0.0546
1225.00,0.0545
1224.00,0.0545
1223.00,0.0546
1222.00,0.0547
1221.00,0.0548
1220.00,0.0550
1219.00,0.0550
1218.00,0.0550
1217.00,0.0550
1216.00,0.0551
1215.00,0.0551
1214.00,0.0552
1213.00,0.0552
1212.00,0.0553
1211.00,0.0554
1210.00,0.0555
1209.00,0.0556
1208.00,0.0556
1207.00,0.0556
1206.00,0.0556
1205.00,0.0556
1204.00,0.0556
1203.00,0.0557
1202.00,0.0558
1201.00,0.0558
1200.00,0.0559
1199.00,0.0560
1198.00,0.0560
1197.00,0.0559
1196.00,0.0559
1195.00,0.0559
1194.00,0.0559
1193.00,0.0560
1192.00,0.0560
1191.00,0.0560
1190.00,0.0560
1189.00,0.0559
1188.00,0.0560
1187.00,0.0561
1186.00,0.0562
1185.00,0.0563
1184.00,0.0563
1183.00,0.0562
1182.00,0.0561
1181.00,0.0560
1180.00,0.0560
1179.00,0.0561
1178.00,0.0561
1177.00,0.0562
1176.00,0.0562
1175.00,0.0564
1174.00,0.0565
1173.00,0.0566
1172.00,0.0566
1171.00,0.0566
1170.00,0.0566
1169.00,0.0566
1168.00,0.0567
1167.00,0.0568
1166.00,0.0569
1165.00,0.0570
1164.00,0.0571
1163.00,0.0571
1162.00,0.0571
1161.00,0.0571
1160.00,0.0571
1159.00,0.0571
1158.00,0.0571
1157.00,0.0571
1156.00,0.0572
1155.00,0.0573
1154.00,0.0574
1153.00,0.0574
1152.00,0.0574
1151.00,0.0573
1150.00,0.0571
1149.00,0.0571
1148.00,0.0571
1147.00,0.0572
1146.00,0.0574
1145.00,0.0575
1144.00,0.0577
1143.00,0.0578
1142.00,0.0580
1141.00,0.0581
1140.00,0.0582
1139.00,0.0582
1138.00,0.0583
1137.00,0.0585
1136.00,0.0588
1135.00,0.0590
1134.00,0.0593
1133.00,0.0594
1132.00,0.0596
1131.00,0.0597
1130.00,0.0599
1129.00,0.0602
1128.00,0.0605
1127.00,0.0608
1126.00,0.0610
1125.00,0.0611
1124.00,0.0614
1123.00,0.0619
1122.00,0.0625
1121.00,0.0632
1120.00,0.0638
1119.00,0.0642
1118.00,0.0645
1117.00,0.0647
1116.00,0.0650
1115.00,0.0653
1114.00,0.0656
1113.00,0.0657
1112.00,0.0658
1111.00,0.0659
1110.00,0.0661
1109.00,0.0663
1108.00,0.0665
1107.00,0.0667
1106.00,0.0668
1105.00,0.0669
1104.00,0.0672
1103.00,0.0676
1102.00,0.0680
1101.00,0.0684
1100.00,0.0685
1099.00,0.0687
1098.00,0.0688
1097.00,0.0689
1096.00,0.0689
1095.00,0.0689
1094.00,0.0690
1093.00,0.0692
1092.00,0.0695
1091.00,0.0697
1090.00,0.0698
1089.00,0.0697
1088.00,0.0696
1087.00,0.0696
1086.00,0.0698
1085.00,0.0700
1084.00,0.0702
1083.00,0.0703
1082.00,0.0704
1081.00,0.0705
1080.00,0.0707
1079.00,0.0710
1078.00,0.0713
1077.00,0.0715
1076.00,0.0715
1075.00,0.0713
1074.00,0.0710
1073.00,0.0708
1072.00,0.0708
1071.00,0.0708
1070.00,0.0709
1069.00,0.0709
1068.00,0.0709
1067.00,0.0711
1066.00,0.0714
1065.00,0.0717
1064.00,0.0721
1063.00,0.0723
1062.00,0.0724
1061.00,0.0724
1060.00,0.0723
1059.00,0.0723
1058.00,0.0725
1057.00,0.0728
1056.00,0.0730
1055.00,0.0732
1054.00,0.0734
1053.00,0.0736
1052.00,0.0738
1051.00,0.0739
1050.00,0.0741
1049.00,0.0745
1048.00,0.0748
1047.00,0.0751
1046.00,0.0752
1045.00,0.0754
1044.00,0.0756
1043.00,0.0758
1042.00,0.0759
1041.00,0.0759
1040.00,0.0761
1039.00,0.0764
1038.00,0.0768
1037.00,0.0772
1036.00,0.0774
1035.00,0.0776
1034.00,0.0776
1033.00,0.0775
1032.00,0.0774
1031.00,0.0773
1030.00,0.0769
1029.00,0.0764
1028.00,0.0760
1027.00,0.0756
1026.00,0.0753
1025.00,0.0750
1024.00,0.0746
1023.00,0.0743
1022.00,0.0738
1021.00,0.0735
1020.00,0.0732
1019.00,0.0731
1018.00,0.0730
1017.00,0.0729
1016.00,0.0729
1015.00,0.0730
1014.00,0.0731
1013.00,0.0732
1012.00,0.0732
1011.00,0.0732
1010.00,0.0733
1009.00,0.0735
1008.00,0.0735
1007.00,0.0735
1006.00,0.0734
1005.00,0.0734
1004.00,0.0734
1003.00,0.0734
1002.00,0.0732
1001.00,0.0728
1000.00,0.0723
999.00,0.0716
998.00,0.0711
997.00,0.0706
996.00,0.0702
995.00,0.0698
994.00,0.0692
993.00,0.0686
992.00,0.0679
991.00,0.0674
990.00,0.0670
989.00,0.0666
988.00,0.0663
987.00,0.0660
986.00,0.0657
985.00,0.0654
984.00,0.0649
983.00,0.0644
982.00,0.0640
981.00,0.0637
980.00,0.0634
979.00,0.0631
978.00,0.0627
977.00,0.0622
976.00,0.0618
975.00,0.0615
974.00,0.0613
973.00,0.0612
972.00,0.0611
971.00,0.0610
970.00,0.0607
969.00,0.0605
968.00,0.0602
967.00,0.0601
966.00,0.0598
965.00,0.0595
964.00,0.0593
963.00,0.0591
962.00,0.0589
961.00,0.0587
960.00,0.0584
959.00,0.0582
958.00,0.0581
957.00,0.0581
956.00,0.0580
955.00,0.0579
954.00,0.0577
953.00,0.0575
952.00,0.0575
951.00,0.0576
950.00,0.0578
949.00,0.0579
948.00,0.0579
947.00,0.0578
946.00,0.0576
945.00,0.0575
944.00,0.0575
943.00,0.0575
942.00,0.0576
941.00,0.0577
940.00,0.0579
939.00,0.0581
938.00,0.0583
937.00,0.0584
936.00,0.0582
935.00,0.0579
934.00,0.0577
933.00,0.0577
932.00,0.0579
931.00,0.0580
930.00,0.0581
929.00,0.0582
928.00,0.0582
927.00,0.0583
926.00,0.0583
925.00,0.0583
924.00,0.0583
923.00,0.0584
922.00,0.0586
921.00,0.0587
920.00,0.0589
919.00,0.0590
918.00,0.0592
917.00,0.0595
916.00,0.0598
915.00,0.0601
914.00,0.0603
913.00,0.0603
912.00,0.0603
911.00,0.0602
910.00,0.0600
909.00,0.0596
908.00,0.0591
907.00,0.0587
906.00,0.0585
905.00,0.0585
904.00,0.0587
903.00,0.0589
902.00,0.0589
901.00,0.0586
900.00,0.0582
899.00,0.0577
898.00,0.0575
897.00,0.0574
896.00,0.0573
895.00,0.0572
894.00,0.0569
893.00,0.0567
892.00,0.0564
891.00,0.0561
890.00,0.0560
889.00,0.0559
888.00,0.0558
887.00,0.0555
886.00,0.0551
885.00,0.0548
884.00,0.0547
883.00,0.0548
882.00,0.0549
881.00,0.0548
880.00,0.0548
879.00,0.0547
878.00,0.0545
877.00,0.0541
876.00,0.0538
875.00,0.0535
874.00,0.0534
873.00,0.0533
872.00,0.0533
871.00,0.0533
870.00,0.0534
869.00,0.0533
868.00,0.0531
867.00,0.0527
866.00,0.0524
865.00,0.0523
864.00,0.0522
863.00,0.0523
862.00,0.0524
861.00,0.0525
860.00,0.0525
859.00,0.0523
858.00,0.0521
857.00,0.0520
856.00,0.0520
855.00,0.0522
854.00,0.0525
853.00,0.0526
852.00,0.0527
851.00,0.0526
850.00,0.0526
849.00,0.0527
848.00,0.0528
847.00,0.0530
846.00,0.0531
845.00,0.0532
844.00,0.0533
843.00,0.0533
842.00,0.0532
841.00,0.0529
840.00,0.0526
839.00,0.0525
838.00,0.0525
837.00,0.0527
836.00,0.0530
835.00,0.0531
834.00,0.0532
833.00,0.0532
832.00,0.0532
831.00,0.0532
830.00,0.0533
829.00,0.0534
828.00,0.0536
827.00,0.0540
826.00,0.0544
825.00,0.0548
824.00,0.0549
823.00,0.0549
822.00,0.0547
821.00,0.0547
820.00,0.0546
819.00,0.0547
818.00,0.0547
817.00,0.0547
816.00,0.0546
815.00,0.0546
814.00,0.0548
813.00,0.0551
812.00,0.0555
811.00,0.0557
810.00,0.0558
809.00,0.0559
808.00,0.0563
807.00,0.0566
806.00,0.0568
805.00,0.0570
804.00,0.0572
803.00,0.0575
802.00,0.0579
801.00,0.0583
800.00,0.0588
799.00,0.0592
798.00,0.0594
797.00,0.0593
796.00,0.0591
795.00,0.0590
794.00,0.0589
793.00,0.0589
792.00,0.0590
791.00,0.0592
790.00,0.0592
789.00,0.0591
788.00,0.0589
787.00,0.0588
786.00,0.0590
785.00,0.0593
784.00,0.0596
783.00,0.0598
782.00,0.0599
781.00,0.0599
780.00,0.0597
779.00,0.0594
778.00,0.0592
777.00,0.0592
776.00,0.0594
775.00,0.0594
774.00,0.0592
773.00,0.0589
772.00,0.0586
771.00,0.0584
770.00,0.0584
769.00,0.0584
768.00,0.0583
767.00,0.0582
766.00,0.0581
765.00,0.0581
764.00,0.0582
763.00,0.0582
762.00,0.0581
761.00,0.0579
760.00,0.0579
759.00,0.0581
758.00,0.0584
757.00,0.0588
756.00,0.0590
755.00,0.0590
754.00,0.0589
753.00,0.0588
752.00,0.0588
751.00,0.0590
750.00,0.0592
749.00,0.0595
748.00,0.0598
747.00,0.0599
746.00,0.0597
745.00,0.0594
744.00,0.0592
743.00,0.0590
742.00,0.0590
741.00,0.0590
740.00,0.0587
739.00,0.0585
738.00,0.0583
737.00,0.0583
736.00,0.0583
735.00,0.0583
734.00,0.0581
733.00,0.0580
732.00,0.0579
731.00,0.0579
730.00,0.0581
729.00,0.0585
728.00,0.0588
727.00,0.0592
726.00,0.0595
725.00,0.0598
724.00,0.0599
723.00,0.0598
722.00,0.0597
721.00,0.0597
720.00,0.0598
719.00,0.0599
718.00,0.0598
717.00,0.0596
716.00,0.0595
715.00,0.0595
714.00,0.0596
713.00,0.0597
712.00,0.0600
711.00,0.0603
710.00,0.0605
709.00,0.0607
708.00,0.0610
707.00,0.0613
706.00,0.0616
705.00,0.0620
704.00,0.0624
703.00,0.0628
702.00,0.0630
701.00,0.0629
700.00,0.0628
699.00,0.0631
698.00,0.0636
697.00,0.0641
696.00,0.0643
695.00,0.0643
694.00,0.0642
693.00,0.0640
692.00,0.0638
691.00,0.0637
690.00,0.0638
689.00,0.0639
688.00,0.0639
687.00,0.0636
686.00,0.0633
685.00,0.0632
684.00,0.0633
683.00,0.0634
682.00,0.0634
681.00,0.0634
680.00,0.0635
679.00,0.0635
678.00,0.0636
677.00,0.0637
676.00,0.0637
675.00,0.0636
674.00,0.0634
673.00,0.0635
672.00,0.0636
671.00,0.0638
670.00,0.0640
669.00,0.0645
668.00,0.0656
667.00,0.0666
666.00,0.0666
665.00,0.0662
664.00,0.0659
663.00,0.0654
662.00,0.0646
661.00,0.0637
660.00,0.0629
659.00,0.0623
658.00,0.0624
657.00,0.0630
656.00,0.0641
655.00,0.0650
654.00,0.0651
653.00,0.0646
652.00,0.0636
651.00,0.0630
650.00,0.0632
