Created as New Dataset,Monday, April 03 2023
cm-1,A
4000.00,0.0534
3999.00,0.0533
3998.00,0.0533
3997.00,0.0532
3996.00,0.0532
3995.00,0.0531
3994.00,0.0530
3993.00,0.0530
3992.00,0.0530
3991.00,0.0530
3990.00,0.0530
3989.00,0.0530
3988.00,0.0530
3987.00,0.0530
3986.00,0.0530
3985.00,0.0531
3984.00,0.0531
3983.00,0.0531
3982.00,0.0531
3981.00,0.0530
3980.00,0.0530
3979.00,0.0530
3978.00,0.0530
3977.00,0.0529
3976.00,0.0529
3975.00,0.0528
3974.00,0.0528
3973.00,0.0528
3972.00,0.0529
3971.00,0.0529
3970.00,0.0530
3969.00,0.0531
3968.00,0.0531
3967.00,0.0530
3966.00,0.0529
3965.00,0.0528
3964.00,0.0528
3963.00,0.0529
3962.00,0.0529
3961.00,0.0528
3960.00,0.0528
3959.00,0.0527
3958.00,0.0527
3957.00,0.0528
3956.00,0.0527
3955.00,0.0526
3954.00,0.0525
3953.00,0.0523
3952.00,0.0522
3951.00,0.0522
3950.00,0.0523
3949.00,0.0524
3948.00,0.0523
3947.00,0.0522
3946.00,0.0521
3945.00,0.0522
3944.00,0.0523
3943.00,0.0524
3942.00,0.0522
3941.00,0.0522
3940.00,0.0523
3939.00,0.0525
3938.00,0.0526
3937.00,0.0525
3936.00,0.0522
3935.00,0.0520
3934.00,0.0520
3933.00,0.0520
3932.00,0.0520
3931.00,0.0520
3930.00,0.0519
3929.00,0.0519
3928.00,0.0519
3927.00,0.0519
3926.00,0.0520
3925.00,0.0520
3924.00,0.0518
3923.00,0.0516
3922.00,0.0515
3921.00,0.0515
3920.00,0.0516
3919.00,0.0517
3918.00,0.0520
3917.00,0.0522
3916.00,0.0523
3915.00,0.0524
3914.00,0.0526
3913.00,0.0528
3912.00,0.0529
3911.00,0.0528
3910.00,0.0524
3909.00,0.0518
3908.00,0.0512
3907.00,0.0506
3906.00,0.0502
3905.00,0.0499
3904.00,0.0497
3903.00,0.0495
3902.00,0.0498
3901.00,0.0505
3900.00,0.0512
3899.00,0.0515
3898.00,0.0515
3897.00,0.0515
3896.00,0.0515
3895.00,0.0514
3894.00,0.0514
3893.00,0.0516
3892.00,0.0518
3891.00,0.0514
3890.00,0.0506
3889.00,0.0503
3888.00,0.0507
3887.00,0.0513
3886.00,0.0514
3885.00,0.0508
3884.00,0.0501
3883.00,0.0502
3882.00,0.0509
3881.00,0.0515
3880.00,0.0514
3879.00,0.0509
3878.00,0.0507
3877.00,0.0511
3876.00,0.0515
3875.00,0.0513
3874.00,0.0504
3873.00,0.0496
3872.00,0.0497
3871.00,0.0505
3870.00,0.0508
3869.00,0.0502
3868.00,0.0497
3867.00,0.0501
3866.00,0.0508
3865.00,0.0512
3864.00,0.0512
3863.00,0.0513
3862.00,0.0514
3861.00,0.0515
3860.00,0.0513
3859.00,0.0507
3858.00,0.0498
3857.00,0.0486
3856.00,0.0478
3855.00,0.0483
3854.00,0.0496
3853.00,0.0500
3852.00,0.0495
3851.00,0.0500
3850.00,0.0514
3849.00,0.0522
3848.00,0.0523
3847.00,0.0520
3846.00,0.0516
3845.00,0.0512
3844.00,0.0507
3843.00,0.0500
3842.00,0.0493
3841.00,0.0490
3840.00,0.0492
3839.00,0.0497
3838.00,0.0500
3837.00,0.0500
3836.00,0.0500
3835.00,0.0504
3834.00,0.0511
3833.00,0.0517
3832.00,0.0519
3831.00,0.0518
3830.00,0.0516
3829.00,0.0517
3828.00,0.0519
3827.00,0.0517
3826.00,0.0510
3825.00,0.0501
3824.00,0.0497
3823.00,0.0501
3822.00,0.0507
3821.00,0.0505
3820.00,0.0494
3819.00,0.0492
3818.00,0.0503
3817.00,0.0517
3816.00,0.0524
3815.00,0.0521
3814.00,0.0520
3813.00,0.0524
3812.00,0.0527
3811.00,0.0522
3810.00,0.0517
3809.00,0.0516
3808.00,0.0518
3807.00,0.0517
3806.00,0.0508
3805.00,0.0500
3804.00,0.0503
3803.00,0.0512
3802.00,0.0518
3801.00,0.0514
3800.00,0.0506
3799.00,0.0507
3798.00,0.0517
3797.00,0.0524
3796.00,0.0526
3795.00,0.0524
3794.00,0.0526
3793.00,0.0530
3792.00,0.0533
3791.00,0.0533
3790.00,0.0532
3789.00,0.0530
3788.00,0.0528
3787.00,0.0528
3786.00,0.0529
3785.00,0.0528
3784.00,0.0525
3783.00,0.0522
3782.00,0.0521
3781.00,0.0524
3780.00,0.0527
3779.00,0.0527
3778.00,0.0526
3777.00,0.0527
3776.00,0.0530
3775.00,0.0530
3774.00,0.0526
3773.00,0.0522
3772.00,0.0522
3771.00,0.0522
3770.00,0.0521
3769.00,0.0517
3768.00,0.0516
3767.00,0.0520
3766.00,0.0525
3765.00,0.0525
3764.00,0.0521
3763.00,0.0519
3762.00,0.0519
3761.00,0.0520
3760.00,0.0519
3759.00,0.0517
3758.00,0.0513
3757.00,0.0507
3756.00,0.0501
3755.00,0.0496
3754.00,0.0491
3753.00,0.0488
3752.00,0.0491
3751.00,0.0497
3750.00,0.0497
3749.00,0.0491
3748.00,0.0488
3747.00,0.0493
3746.00,0.0506
3745.00,0.0517
3744.00,0.0513
3743.00,0.0502
3742.00,0.0502
3741.00,0.0509
3740.00,0.0508
3739.00,0.0501
3738.00,0.0494
3737.00,0.0492
3736.00,0.0493
3735.00,0.0493
3734.00,0.0496
3733.00,0.0503
3732.00,0.0509
3731.00,0.0512
3730.00,0.0514
3729.00,0.0518
3728.00,0.0521
3727.00,0.0521
3726.00,0.0517
3725.00,0.0514
3724.00,0.0514
3723.00,0.0517
3722.00,0.0519
3721.00,0.0521
3720.00,0.0524
3719.00,0.0527
3718.00,0.0527
3717.00,0.0523
3716.00,0.0517
3715.00,0.0512
3714.00,0.0509
3713.00,0.0510
3712.00,0.0514
3711.00,0.0516
3710.00,0.0517
3709.00,0.0520
3708.00,0.0524
3707.00,0.0529
3706.00,0.0530
3705.00,0.0531
3704.00,0.0531
3703.00,0.0532
3702.00,0.0532
3701.00,0.0532
3700.00,0.0532
3699.00,0.0534
3698.00,0.0538
3697.00,0.0539
3696.00,0.0535
3695.00,0.0529
3694.00,0.0523
3693.00,0.0516
3692.00,0.0512
3691.00,0.0513
3690.00,0.0520
3689.00,0.0526
3688.00,0.0528
3687.00,0.0529
3686.00,0.0535
3685.00,0.0541
3684.00,0.0543
3683.00,0.0539
3682.00,0.0533
3681.00,0.0526
3680.00,0.0516
3679.00,0.0504
3678.00,0.0496
3677.00,0.0500
3676.00,0.0507
3675.00,0.0503
3674.00,0.0493
3673.00,0.0494
3672.00,0.0507
3671.00,0.0520
3670.00,0.0527
3669.00,0.0526
3668.00,0.0526
3667.00,0.0531
3666.00,0.0538
3665.00,0.0542
3664.00,0.0543
3663.00,0.0542
3662.00,0.0540
3661.00,0.0536
3660.00,0.0532
3659.00,0.0530
3658.00,0.0532
3657.00,0.0534
3656.00,0.0530
3655.00,0.0522
3654.00,0.0514
3653.00,0.0507
3652.00,0.0501
3651.00,0.0497
3650.00,0.0499
3649.00,0.0504
3648.00,0.0508
3647.00,0.0512
3646.00,0.0519
3645.00,0.0528
3644.00,0.0535
3643.00,0.0540
3642.00,0.0541
3641.00,0.0540
3640.00,0.0539
3639.00,0.0538
3638.00,0.0537
3637.00,0.0535
3636.00,0.0534
3635.00,0.0532
3634.00,0.0527
3633.00,0.0518
3632.00,0.0510
3631.00,0.0509
3630.00,0.0518
3629.00,0.0527
3628.00,0.0526
3627.00,0.0525
3626.00,0.0531
3625.00,0.0537
3624.00,0.0537
3623.00,0.0531
3622.00,0.0526
3621.00,0.0525
3620.00,0.0526
3619.00,0.0525
3618.00,0.0522
3617.00,0.0520
3616.00,0.0521
3615.00,0.0524
3614.00,0.0526
3613.00,0.0524
3612.00,0.0522
3611.00,0.0522
3610.00,0.0527
3609.00,0.0534
3608.00,0.0537
3607.00,0.0538
3606.00,0.0537
3605.00,0.0538
3604.00,0.0538
3603.00,0.0539
3602.00,0.0539
3601.00,0.0539
3600.00,0.0538
3599.00,0.0535
3598.00,0.0533
3597.00,0.0533
3596.00,0.0533
3595.00,0.0534
3594.00,0.0534
3593.00,0.0533
3592.00,0.0530
3591.00,0.0528
3590.00,0.0527
3589.00,0.0528
3588.00,0.0531
3587.00,0.0532
3586.00,0.0532
3585.00,0.0535
3584.00,0.0540
3583.00,0.0544
3582.00,0.0547
3581.00,0.0547
3580.00,0.0547
3579.00,0.0547
3578.00,0.0546
3577.00,0.0546
3576.00,0.0547
3575.00,0.0547
3574.00,0.0547
3573.00,0.0545
3572.00,0.0541
3571.00,0.0534
3570.00,0.0528
3569.00,0.0525
3568.00,0.0527
3567.00,0.0529
3566.00,0.0530
3565.00,0.0530
3564.00,0.0534
3563.00,0.0539
3562.00,0.0543
3561.00,0.0546
3560.00,0.0548
3559.00,0.0549
3558.00,0.0550
3557.00,0.0550
3556.00,0.0550
3555.00,0.0549
3554.00,0.0549
3553.00,0.0549
3552.00,0.0549
3551.00,0.0547
3550.00,0.0546
3549.00,0.0545
3548.00,0.0545
3547.00,0.0545
3546.00,0.0546
3545.00,0.0547
3544.00,0.0548
3543.00,0.0550
3542.00,0.0552
3541.00,0.0553
3540.00,0.0553
3539.00,0.0552
3538.00,0.0552
3537.00,0.0552
3536.00,0.0552
3535.00,0.0552
3534.00,0.0553
3533.00,0.0553
3532.00,0.0553
3531.00,0.0552
3530.00,0.0550
3529.00,0.0548
3528.00,0.0546
3527.00,0.0544
3526.00,0.0544
3525.00,0.0547
3524.00,0.0550
3523.00,0.0552
3522.00,0.0553
3521.00,0.0554
3520.00,0.0554
3519.00,0.0555
3518.00,0.0555
3517.00,0.0555
3516.00,0.0554
3515.00,0.0554
3514.00,0.0554
3513.00,0.0554
3512.00,0.0554
3511.00,0.0554
3510.00,0.0553
3509.00,0.0553
3508.00,0.0552
3507.00,0.0551
3506.00,0.0551
3505.00,0.0551
3504.00,0.0552
3503.00,0.0553
3502.00,0.0553
3501.00,0.0554
3500.00,0.0555
3499.00,0.0556
3498.00,0.0557
3497.00,0.0558
3496.00,0.0558
3495.00,0.0558
3494.00,0.0557
3493.00,0.0557
3492.00,0.0557
3491.00,0.0557
3490.00,0.0557
3489.00,0.0557
3488.00,0.0557
3487.00,0.0556
3486.00,0.0555
3485.00,0.0555
3484.00,0.0555
3483.00,0.0555
3482.00,0.0556
3481.00,0.0556
3480.00,0.0557
3479.00,0.0557
3478.00,0.0558
3477.00,0.0559
3476.00,0.0559
3475.00,0.0560
3474.00,0.0560
3473.00,0.0560
3472.00,0.0560
3471.00,0.0559
3470.00,0.0559
3469.00,0.0560
3468.00,0.0560
3467.00,0.0561
3466.00,0.0561
3465.00,0.0562
3464.00,0.0562
3463.00,0.0561
3462.00,0.0559
3461.00,0.0558
3460.00,0.0559
3459.00,0.0560
3458.00,0.0561
3457.00,0.0561
3456.00,0.0561
3455.00,0.0560
3454.00,0.0560
3453.00,0.0560
3452.00,0.0560
3451.00,0.0559
3450.00,0.0558
3449.00,0.0557
3448.00,0.0557
3447.00,0.0557
3446.00,0.0557
3445.00,0.0558
3444.00,0.0559
3443.00,0.0560
3442.00,0.0560
3441.00,0.0559
3440.00,0.0559
3439.00,0.0559
3438.00,0.0559
3437.00,0.0560
3436.00,0.0560
3435.00,0.0560
3434.00,0.0560
3433.00,0.0560
3432.00,0.0560
3431.00,0.0561
3430.00,0.0561
3429.00,0.0561
3428.00,0.0561
3427.00,0.0561
3426.00,0.0561
3425.00,0.0561
3424.00,0.0562
3423.00,0.0562
3422.00,0.0562
3421.00,0.0562
3420.00,0.0561
3419.00,0.0561
3418.00,0.0562
3417.00,0.0562
3416.00,0.0561
3415.00,0.0561
3414.00,0.0561
3413.00,0.0561
3412.00,0.0561
3411.00,0.0562
3410.00,0.0562
3409.00,0.0563
3408.00,0.0563
3407.00,0.0563
3406.00,0.0563
3405.00,0.0563
3404.00,0.0562
3403.00,0.0562
3402.00,0.0561
3401.00,0.0561
3400.00,0.0561
3399.00,0.0561
3398.00,0.0561
3397.00,0.0561
3396.00,0.0560
3395.00,0.0559
3394.00,0.0559
3393.00,0.0560
3392.00,0.0561
3391.00,0.0562
3390.00,0.0562
3389.00,0.0563
3388.00,0.0563
3387.00,0.0563
3386.00,0.0562
3385.00,0.0562
3384.00,0.0562
3383.00,0.0562
3382.00,0.0562
3381.00,0.0563
3380.00,0.0563
3379.00,0.0564
3378.00,0.0565
3377.00,0.0565
3376.00,0.0565
3375.00,0.0565
3374.00,0.0564
3373.00,0.0564
3372.00,0.0563
3371.00,0.0562
3370.00,0.0562
3369.00,0.0562
3368.00,0.0562
3367.00,0.0562
3366.00,0.0562
3365.00,0.0561
3364.00,0.0561
3363.00,0.0561
3362.00,0.0563
3361.00,0.0564
3360.00,0.0565
3359.00,0.0565
3358.00,0.0565
3357.00,0.0564
3356.00,0.0564
3355.00,0.0564
3354.00,0.0565
3353.00,0.0565
3352.00,0.0565
3351.00,0.0565
3350.00,0.0565
3349.00,0.0565
3348.00,0.0565
3347.00,0.0565
3346.00,0.0565
3345.00,0.0564
3344.00,0.0564
3343.00,0.0563
3342.00,0.0564
3341.00,0.0564
3340.00,0.0565
3339.00,0.0565
3338.00,0.0565
3337.00,0.0565
3336.00,0.0565
3335.00,0.0564
3334.00,0.0564
3333.00,0.0565
3332.00,0.0565
3331.00,0.0565
3330.00,0.0564
3329.00,0.0564
3328.00,0.0564
3327.00,0.0564
3326.00,0.0565
3325.00,0.0566
3324.00,0.0567
3323.00,0.0567
3322.00,0.0567
3321.00,0.0566
3320.00,0.0566
3319.00,0.0565
3318.00,0.0565
3317.00,0.0565
3316.00,0.0565
3315.00,0.0564
3314.00,0.0564
3313.00,0.0564
3312.00,0.0564
3311.00,0.0564
3310.00,0.0565
3309.00,0.0566
3308.00,0.0566
3307.00,0.0567
3306.00,0.0567
3305.00,0.0567
3304.00,0.0566
3303.00,0.0566
3302.00,0.0566
3301.00,0.0566
3300.00,0.0566
3299.00,0.0566
3298.00,0.0566
3297.00,0.0566
3296.00,0.0567
3295.00,0.0567
3294.00,0.0567
3293.00,0.0567
3292.00,0.0567
3291.00,0.0566
3290.00,0.0566
3289.00,0.0567
3288.00,0.0567
3287.00,0.0568
3286.00,0.0568
3285.00,0.0569
3284.00,0.0569
3283.00,0.0569
3282.00,0.0568
3281.00,0.0568
3280.00,0.0568
3279.00,0.0568
3278.00,0.0568
3277.00,0.0567
3276.00,0.0567
3275.00,0.0567
3274.00,0.0567
3273.00,0.0568
3272.00,0.0568
3271.00,0.0569
3270.00,0.0569
3269.00,0.0570
3268.00,0.0570
3267.00,0.0570
3266.00,0.0570
3265.00,0.0569
3264.00,0.0568
3263.00,0.0568
3262.00,0.0568
3261.00,0.0568
3260.00,0.0569
3259.00,0.0570
3258.00,0.0569
3257.00,0.0569
3256.00,0.0569
3255.00,0.0569
3254.00,0.0569
3253.00,0.0570
3252.00,0.0570
3251.00,0.0571
3250.00,0.0570
3249.00,0.0570
3248.00,0.0570
3247.00,0.0569
3246.00,0.0569
3245.00,0.0570
3244.00,0.0570
3243.00,0.0570
3242.00,0.0570
3241.00,0.0570
3240.00,0.0570
3239.00,0.0570
3238.00,0.0570
3237.00,0.0571
3236.00,0.0572
3235.00,0.0573
3234.00,0.0573
3233.00,0.0573
3232.00,0.0572
3231.00,0.0572
3230.00,0.0571
3229.00,0.0571
3228.00,0.0571
3227.00,0.0571
3226.00,0.0571
3225.00,0.0571
3224.00,0.0571
3223.00,0.0571
3222.00,0.0572
3221.00,0.0572
3220.00,0.0572
3219.00,0.0571
3218.00,0.0571
3217.00,0.0571
3216.00,0.0572
3215.00,0.0573
3214.00,0.0574
3213.00,0.0574
3212.00,0.0573
3211.00,0.0573
3210.00,0.0572
3209.00,0.0573
3208.00,0.0573
3207.00,0.0573
3206.00,0.0574
3205.00,0.0574
3204.00,0.0575
3203.00,0.0575
3202.00,0.0575
3201.00,0.0575
3200.00,0.0575
3199.00,0.0574
3198.00,0.0574
3197.00,0.0574
3196.00,0.0574
3195.00,0.0574
3194.00,0.0574
3193.00,0.0574
3192.00,0.0574
3191.00,0.0574
3190.00,0.0574
3189.00,0.0573
3188.00,0.0573
3187.00,0.0573
3186.00,0.0574
3185.00,0.0574
3184.00,0.0575
3183.00,0.0576
3182.00,0.0577
3181.00,0.0576
3180.00,0.0576
3179.00,0.0575
3178.00,0.0574
3177.00,0.0574
3176.00,0.0574
3175.00,0.0574
3174.00,0.0575
3173.00,0.0575
3172.00,0.0576
3171.00,0.0576
3170.00,0.0576
3169.00,0.0576
3168.00,0.0576
3167.00,0.0576
3166.00,0.0577
3165.00,0.0578
3164.00,0.0579
3163.00,0.0579
3162.00,0.0579
3161.00,0.0578
3160.00,0.0577
3159.00,0.0576
3158.00,0.0576
3157.00,0.0575
3156.00,0.0576
3155.00,0.0576
3154.00,0.0577
3153.00,0.0578
3152.00,0.0578
3151.00,0.0578
3150.00,0.0578
3149.00,0.0578
3148.00,0.0578
3147.00,0.0578
3146.00,0.0578
3145.00,0.0578
3144.00,0.0579
3143.00,0.0579
3142.00,0.0579
3141.00,0.0579
3140.00,0.0578
3139.00,0.0578
3138.00,0.0579
3137.00,0.0579
3136.00,0.0579
3135.00,0.0579
3134.00,0.0579
3133.00,0.0579
3132.00,0.0579
3131.00,0.0580
3130.00,0.0580
3129.00,0.0581
3128.00,0.0580
3127.00,0.0580
3126.00,0.0580
3125.00,0.0580
3124.00,0.0579
3123.00,0.0579
3122.00,0.0579
3121.00,0.0579
3120.00,0.0579
3119.00,0.0579
3118.00,0.0579
3117.00,0.0580
3116.00,0.0580
3115.00,0.0580
3114.00,0.0580
3113.00,0.0581
3112.00,0.0581
3111.00,0.0581
3110.00,0.0581
3109.00,0.0581
3108.00,0.0581
3107.00,0.0582
3106.00,0.0582
3105.00,0.0582
3104.00,0.0582
3103.00,0.0582
3102.00,0.0581
3101.00,0.0581
3100.00,0.0580
3099.00,0.0580
3098.00,0.0580
3097.00,0.0581
3096.00,0.0582
3095.00,0.0583
3094.00,0.0584
3093.00,0.0585
3092.00,0.0585
3091.00,0.0585
3090.00,0.0584
3089.00,0.0583
3088.00,0.0582
3087.00,0.0582
3086.00,0.0582
3085.00,0.0583
3084.00,0.0584
3083.00,0.0584
3082.00,0.0584
3081.00,0.0584
3080.00,0.0585
3079.00,0.0585
3078.00,0.0585
3077.00,0.0585
3076.00,0.0585
3075.00,0.0585
3074.00,0.0586
3073.00,0.0586
3072.00,0.0586
3071.00,0.0587
3070.00,0.0587
3069.00,0.0587
3068.00,0.0587
3067.00,0.0586
3066.00,0.0586
3065.00,0.0585
3064.00,0.0585
3063.00,0.0585
3062.00,0.0585
3061.00,0.0586
3060.00,0.0586
3059.00,0.0586
3058.00,0.0586
3057.00,0.0587
3056.00,0.0587
3055.00,0.0587
3054.00,0.0587
3053.00,0.0587
3052.00,0.0588
3051.00,0.0588
3050.00,0.0589
3049.00,0.0589
3048.00,0.0589
3047.00,0.0589
3046.00,0.0589
3045.00,0.0589
3044.00,0.0589
3043.00,0.0588
3042.00,0.0588
3041.00,0.0587
3040.00,0.0587
3039.00,0.0587
3038.00,0.0588
3037.00,0.0589
3036.00,0.0590
3035.00,0.0590
3034.00,0.0590
3033.00,0.0589
3032.00,0.0589
3031.00,0.0589
3030.00,0.0588
3029.00,0.0588
3028.00,0.0588
3027.00,0.0588
3026.00,0.0588
3025.00,0.0589
3024.00,0.0589
3023.00,0.0589
3022.00,0.0589
3021.00,0.0589
3020.00,0.0589
3019.00,0.0588
3018.00,0.0588
3017.00,0.0588
3016.00,0.0588
3015.00,0.0587
3014.00,0.0586
3013.00,0.0585
3012.00,0.0585
3011.00,0.0584
3010.00,0.0584
3009.00,0.0583
3008.00,0.0582
3007.00,0.0580
3006.00,0.0580
3005.00,0.0579
3004.00,0.0578
3003.00,0.0576
3002.00,0.0574
3001.00,0.0573
3000.00,0.0572
2999.00,0.0570
2998.00,0.0569
2997.00,0.0567
2996.00,0.0566
2995.00,0.0565
2994.00,0.0565
2993.00,0.0564
2992.00,0.0564
2991.00,0.0563
2990.00,0.0563
2989.00,0.0563
2988.00,0.0562
2987.00,0.0560
2986.00,0.0557
2985.00,0.0553
2984.00,0.0549
2983.00,0.0545
2982.00,0.0543
2981.00,0.0544
2980.00,0.0545
2979.00,0.0548
2978.00,0.0550
2977.00,0.0553
2976.00,0.0554
2975.00,0.0555
2974.00,0.0554
2973.00,0.0553
2972.00,0.0552
2971.00,0.0553
2970.00,0.0555
2969.00,0.0557
2968.00,0.0559
2967.00,0.0560
2966.00,0.0561
2965.00,0.0562
2964.00,0.0563
2963.00,0.0565
2962.00,0.0566
2961.00,0.0567
2960.00,0.0568
2959.00,0.0568
2958.00,0.0568
2957.00,0.0568
2956.00,0.0570
2955.00,0.0571
2954.00,0.0572
2953.00,0.0574
2952.00,0.0575
2951.00,0.0575
2950.00,0.0576
2949.00,0.0577
2948.00,0.0577
2947.00,0.0577
2946.00,0.0578
2945.00,0.0579
2944.00,0.0580
2943.00,0.0580
2942.00,0.0581
2941.00,0.0581
2940.00,0.0581
2939.00,0.0580
2938.00,0.0580
2937.00,0.0580
2936.00,0.0580
2935.00,0.0580
2934.00,0.0581
2933.00,0.0580
2932.00,0.0580
2931.00,0.0580
2930.00,0.0581
2929.00,0.0581
2928.00,0.0581
2927.00,0.0581
2926.00,0.0581
2925.00,0.0581
2924.00,0.0581
2923.00,0.0582
2922.00,0.0583
2921.00,0.0584
2920.00,0.0584
2919.00,0.0584
2918.00,0.0584
2917.00,0.0584
2916.00,0.0584
2915.00,0.0584
2914.00,0.0584
2913.00,0.0584
2912.00,0.0584
2911.00,0.0584
2910.00,0.0584
2909.00,0.0583
2908.00,0.0583
2907.00,0.0583
2906.00,0.0583
2905.00,0.0583
2904.00,0.0583
2903.00,0.0583
2902.00,0.0584
2901.00,0.0584
2900.00,0.0584
2899.00,0.0584
2898.00,0.0583
2897.00,0.0583
2896.00,0.0583
2895.00,0.0583
2894.00,0.0582
2893.00,0.0582
2892.00,0.0583
2891.00,0.0583
2890.00,0.0583
2889.00,0.0583
2888.00,0.0583
2887.00,0.0583
2886.00,0.0583
2885.00,0.0583
2884.00,0.0583
2883.00,0.0583
2882.00,0.0583
2881.00,0.0583
2880.00,0.0584
2879.00,0.0585
2878.00,0.0586
2877.00,0.0586
2876.00,0.0587
2875.00,0.0587
2874.00,0.0586
2873.00,0.0586
2872.00,0.0586
2871.00,0.0586
2870.00,0.0586
2869.00,0.0587
2868.00,0.0587
2867.00,0.0587
2866.00,0.0587
2865.00,0.0587
2864.00,0.0587
2863.00,0.0588
2862.00,0.0588
2861.00,0.0589
2860.00,0.0590
2859.00,0.0591
2858.00,0.0592
2857.00,0.0593
2856.00,0.0593
2855.00,0.0593
2854.00,0.0593
2853.00,0.0593
2852.00,0.0593
2851.00,0.0594
2850.00,0.0595
2849.00,0.0596
2848.00,0.0596
2847.00,0.0596
2846.00,0.0597
2845.00,0.0597
2844.00,0.0597
2843.00,0.0597
2842.00,0.0597
2841.00,0.0596
2840.00,0.0596
2839.00,0.0595
2838.00,0.0595
2837.00,0.0596
2836.00,0.0596
2835.00,0.0598
2834.00,0.0598
2833.00,0.0598
2832.00,0.0598
2831.00,0.0597
2830.00,0.0597
2829.00,0.0596
2828.00,0.0597
2827.00,0.0597
2826.00,0.0597
2825.00,0.0597
2824.00,0.0597
2823.00,0.0597
2822.00,0.0597
2821.00,0.0596
2820.00,0.0596
2819.00,0.0595
2818.00,0.0595
2817.00,0.0596
2816.00,0.0596
2815.00,0.0596
2814.00,0.0596
2813.00,0.0596
2812.00,0.0596
2811.00,0.0596
2810.00,0.0596
2809.00,0.0597
2808.00,0.0597
2807.00,0.0597
2806.00,0.0597
2805.00,0.0597
2804.00,0.0597
2803.00,0.0597
2802.00,0.0597
2801.00,0.0597
2800.00,0.0598
2799.00,0.0598
2798.00,0.0598
2797.00,0.0598
2796.00,0.0597
2795.00,0.0597
2794.00,0.0597
2793.00,0.0597
2792.00,0.0598
2791.00,0.0598
2790.00,0.0598
2789.00,0.0598
2788.00,0.0598
2787.00,0.0598
2786.00,0.0597
2785.00,0.0597
2784.00,0.0597
2783.00,0.0597
2782.00,0.0596
2781.00,0.0596
2780.00,0.0596
2779.00,0.0596
2778.00,0.0596
2777.00,0.0597
2776.00,0.0597
2775.00,0.0597
2774.00,0.0597
2773.00,0.0597
2772.00,0.0597
2771.00,0.0597
2770.00,0.0596
2769.00,0.0595
2768.00,0.0595
2767.00,0.0595
2766.00,0.0595
2765.00,0.0595
2764.00,0.0596
2763.00,0.0596
2762.00,0.0596
2761.00,0.0597
2760.00,0.0597
2759.00,0.0597
2758.00,0.0596
2757.00,0.0596
2756.00,0.0596
2755.00,0.0595
2754.00,0.0596
2753.00,0.0596
2752.00,0.0596
2751.00,0.0597
2750.00,0.0597
2749.00,0.0597
2748.00,0.0597
2747.00,0.0597
2746.00,0.0597
2745.00,0.0597
2744.00,0.0597
2743.00,0.0597
2742.00,0.0597
2741.00,0.0597
2740.00,0.0598
2739.00,0.0597
2738.00,0.0597
2737.00,0.0596
2736.00,0.0596
2735.00,0.0596
2734.00,0.0596
2733.00,0.0597
2732.00,0.0597
2731.00,0.0597
2730.00,0.0597
2729.00,0.0597
2728.00,0.0597
2727.00,0.0596
2726.00,0.0596
2725.00,0.0597
2724.00,0.0597
2723.00,0.0597
2722.00,0.0596
2721.00,0.0596
2720.00,0.0596
2719.00,0.0596
2718.00,0.0597
2717.00,0.0597
2716.00,0.0598
2715.00,0.0598
2714.00,0.0598
2713.00,0.0598
2712.00,0.0597
2711.00,0.0597
2710.00,0.0597
2709.00,0.0597
2708.00,0.0597
2707.00,0.0597
2706.00,0.0596
2705.00,0.0597
2704.00,0.0597
2703.00,0.0597
2702.00,0.0597
2701.00,0.0597
2700.00,0.0597
2699.00,0.0597
2698.00,0.0597
2697.00,0.0597
2696.00,0.0597
2695.00,0.0597
2694.00,0.0598
2693.00,0.0598
2692.00,0.0598
2691.00,0.0598
2690.00,0.0598
2689.00,0.0598
2688.00,0.0598
2687.00,0.0598
2686.00,0.0598
2685.00,0.0598
2684.00,0.0598
2683.00,0.0598
2682.00,0.0598
2681.00,0.0598
2680.00,0.0598
2679.00,0.0597
2678.00,0.0597
2677.00,0.0596
2676.00,0.0596
2675.00,0.0596
2674.00,0.0597
2673.00,0.0597
2672.00,0.0598
2671.00,0.0597
2670.00,0.0597
2669.00,0.0597
2668.00,0.0597
2667.00,0.0597
2666.00,0.0598
2665.00,0.0598
2664.00,0.0598
2663.00,0.0598
2662.00,0.0599
2661.00,0.0599
2660.00,0.0599
2659.00,0.0599
2658.00,0.0599
2657.00,0.0599
2656.00,0.0599
2655.00,0.0599
2654.00,0.0599
2653.00,0.0599
2652.00,0.0600
2651.00,0.0600
2650.00,0.0600
2649.00,0.0600
2648.00,0.0600
2647.00,0.0599
2646.00,0.0599
2645.00,0.0599
2644.00,0.0599
2643.00,0.0600
2642.00,0.0600
2641.00,0.0600
2640.00,0.0601
2639.00,0.0601
2638.00,0.0601
2637.00,0.0601
2636.00,0.0601
2635.00,0.0601
2634.00,0.0601
2633.00,0.0602
2632.00,0.0602
2631.00,0.0602
2630.00,0.0601
2629.00,0.0601
2628.00,0.0600
2627.00,0.0600
2626.00,0.0601
2625.00,0.0602
2624.00,0.0603
2623.00,0.0604
2622.00,0.0604
2621.00,0.0604
2620.00,0.0604
2619.00,0.0604
2618.00,0.0604
2617.00,0.0604
2616.00,0.0603
2615.00,0.0603
2614.00,0.0602
2613.00,0.0602
2612.00,0.0603
2611.00,0.0604
2610.00,0.0604
2609.00,0.0604
2608.00,0.0603
2607.00,0.0603
2606.00,0.0604
2605.00,0.0605
2604.00,0.0606
2603.00,0.0607
2602.00,0.0607
2601.00,0.0606
2600.00,0.0606
2599.00,0.0606
2598.00,0.0606
2597.00,0.0605
2596.00,0.0605
2595.00,0.0605
2594.00,0.0606
2593.00,0.0606
2592.00,0.0607
2591.00,0.0607
2590.00,0.0607
2589.00,0.0607
2588.00,0.0607
2587.00,0.0606
2586.00,0.0606
2585.00,0.0605
2584.00,0.0605
2583.00,0.0606
2582.00,0.0606
2581.00,0.0607
2580.00,0.0607
2579.00,0.0607
2578.00,0.0607
2577.00,0.0607
2576.00,0.0607
2575.00,0.0607
2574.00,0.0607
2573.00,0.0608
2572.00,0.0608
2571.00,0.0608
2570.00,0.0607
2569.00,0.0607
2568.00,0.0608
2567.00,0.0609
2566.00,0.0610
2565.00,0.0611
2564.00,0.0611
2563.00,0.0611
2562.00,0.0611
2561.00,0.0612
2560.00,0.0612
2559.00,0.0612
2558.00,0.0612
2557.00,0.0613
2556.00,0.0613
2555.00,0.0613
2554.00,0.0613
2553.00,0.0612
2552.00,0.0611
2551.00,0.0609
2550.00,0.0608
2549.00,0.0608
2548.00,0.0607
2547.00,0.0608
2546.00,0.0608
2545.00,0.0609
2544.00,0.0610
2543.00,0.0610
2542.00,0.0610
2541.00,0.0609
2540.00,0.0608
2539.00,0.0607
2538.00,0.0607
2537.00,0.0607
2536.00,0.0608
2535.00,0.0609
2534.00,0.0610
2533.00,0.0611
2532.00,0.0611
2531.00,0.0611
2530.00,0.0610
2529.00,0.0610
2528.00,0.0610
2527.00,0.0610
2526.00,0.0610
2525.00,0.0610
2524.00,0.0610
2523.00,0.0610
2522.00,0.0611
2521.00,0.0612
2520.00,0.0612
2519.00,0.0613
2518.00,0.0614
2517.00,0.0615
2516.00,0.0615
2515.00,0.0615
2514.00,0.0614
2513.00,0.0613
2512.00,0.0613
2511.00,0.0613
2510.00,0.0614
2509.00,0.0615
2508.00,0.0616
2507.00,0.0616
2506.00,0.0616
2505.00,0.0615
2504.00,0.0615
2503.00,0.0615
2502.00,0.0615
2501.00,0.0616
2500.00,0.0617
2499.00,0.0618
2498.00,0.0617
2497.00,0.0617
2496.00,0.0617
2495.00,0.0617
2494.00,0.0617
2493.00,0.0618
2492.00,0.0618
2491.00,0.0619
2490.00,0.0619
2489.00,0.0619
2488.00,0.0619
2487.00,0.0619
2486.00,0.0618
2485.00,0.0618
2484.00,0.0618
2483.00,0.0618
2482.00,0.0619
2481.00,0.0620
2480.00,0.0621
2479.00,0.0621
2478.00,0.0621
2477.00,0.0620
2476.00,0.0620
2475.00,0.0619
2474.00,0.0619
2473.00,0.0619
2472.00,0.0620
2471.00,0.0620
2470.00,0.0620
2469.00,0.0620
2468.00,0.0620
2467.00,0.0620
2466.00,0.0620
2465.00,0.0620
2464.00,0.0620
2463.00,0.0620
2462.00,0.0619
2461.00,0.0620
2460.00,0.0620
2459.00,0.0621
2458.00,0.0622
2457.00,0.0623
2456.00,0.0623
2455.00,0.0624
2454.00,0.0625
2453.00,0.0626
2452.00,0.0626
2451.00,0.0626
2450.00,0.0625
2449.00,0.0625
2448.00,0.0624
2447.00,0.0624
2446.00,0.0624
2445.00,0.0624
2444.00,0.0623
2443.00,0.0623
2442.00,0.0623
2441.00,0.0623
2440.00,0.0624
2439.00,0.0625
2438.00,0.0625
2437.00,0.0625
2436.00,0.0625
2435.00,0.0624
2434.00,0.0624
2433.00,0.0624
2432.00,0.0625
2431.00,0.0625
2430.00,0.0625
2429.00,0.0626
2428.00,0.0626
2427.00,0.0626
2426.00,0.0626
2425.00,0.0626
2424.00,0.0626
2423.00,0.0627
2422.00,0.0627
2421.00,0.0627
2420.00,0.0627
2419.00,0.0626
2418.00,0.0626
2417.00,0.0626
2416.00,0.0626
2415.00,0.0626
2414.00,0.0626
2413.00,0.0627
2412.00,0.0627
2411.00,0.0627
2410.00,0.0628
2409.00,0.0628
2408.00,0.0628
2407.00,0.0628
2406.00,0.0628
2405.00,0.0628
2404.00,0.0628
2403.00,0.0628
2402.00,0.0627
2401.00,0.0627
2400.00,0.0627
2399.00,0.0627
2398.00,0.0627
2397.00,0.0627
2396.00,0.0627
2395.00,0.0627
2394.00,0.0626
2393.00,0.0626
2392.00,0.0626
2391.00,0.0626
2390.00,0.0627
2389.00,0.0627
2388.00,0.0626
2387.00,0.0625
2386.00,0.0624
2385.00,0.0623
2384.00,0.0620
2383.00,0.0618
2382.00,0.0616
2381.00,0.0614
2380.00,0.0615
2379.00,0.0615
2378.00,0.0616
2377.00,0.0616
2376.00,0.0617
2375.00,0.0618
2374.00,0.0620
2373.00,0.0621
2372.00,0.0622
2371.00,0.0620
2370.00,0.0617
2369.00,0.0613
2368.00,0.0610
2367.00,0.0610
2366.00,0.0612
2365.00,0.0614
2364.00,0.0616
2363.00,0.0616
2362.00,0.0618
2361.00,0.0621
2360.00,0.0625
2359.00,0.0629
2358.00,0.0632
2357.00,0.0635
2356.00,0.0636
2355.00,0.0636
2354.00,0.0636
2353.00,0.0636
2352.00,0.0633
2351.00,0.0627
2350.00,0.0620
2349.00,0.0613
2348.00,0.0606
2347.00,0.0602
2346.00,0.0603
2345.00,0.0610
2344.00,0.0617
2343.00,0.0622
2342.00,0.0625
2341.00,0.0627
2340.00,0.0627
2339.00,0.0627
2338.00,0.0626
2337.00,0.0626
2336.00,0.0627
2335.00,0.0628
2334.00,0.0630
2333.00,0.0631
2332.00,0.0632
2331.00,0.0634
2330.00,0.0635
2329.00,0.0636
2328.00,0.0636
2327.00,0.0636
2326.00,0.0636
2325.00,0.0636
2324.00,0.0635
2323.00,0.0636
2322.00,0.0638
2321.00,0.0640
2320.00,0.0642
2319.00,0.0641
2318.00,0.0641
2317.00,0.0639
2316.00,0.0638
2315.00,0.0636
2314.00,0.0635
2313.00,0.0635
2312.00,0.0636
2311.00,0.0637
2310.00,0.0638
2309.00,0.0638
2308.00,0.0638
2307.00,0.0637
2306.00,0.0637
2305.00,0.0637
2304.00,0.0636
2303.00,0.0634
2302.00,0.0633
2301.00,0.0633
2300.00,0.0634
2299.00,0.0634
2298.00,0.0635
2297.00,0.0635
2296.00,0.0634
2295.00,0.0634
2294.00,0.0635
2293.00,0.0637
2292.00,0.0638
2291.00,0.0639
2290.00,0.0639
2289.00,0.0638
2288.00,0.0638
2287.00,0.0639
2286.00,0.0640
2285.00,0.0641
2284.00,0.0642
2283.00,0.0642
2282.00,0.0642
2281.00,0.0642
2280.00,0.0642
2279.00,0.0641
2278.00,0.0641
2277.00,0.0641
2276.00,0.0640
2275.00,0.0639
2274.00,0.0638
2273.00,0.0637
2272.00,0.0636
2271.00,0.0636
2270.00,0.0637
2269.00,0.0637
2268.00,0.0638
2267.00,0.0638
2266.00,0.0639
2265.00,0.0640
2264.00,0.0641
2263.00,0.0642
2262.00,0.0642
2261.00,0.0643
2260.00,0.0643
2259.00,0.0642
2258.00,0.0640
2257.00,0.0637
2256.00,0.0636
2255.00,0.0636
2254.00,0.0637
2253.00,0.0638
2252.00,0.0639
2251.00,0.0640
2250.00,0.0640
2249.00,0.0640
2248.00,0.0639
2247.00,0.0639
2246.00,0.0640
2245.00,0.0642
2244.00,0.0642
2243.00,0.0641
2242.00,0.0640
2241.00,0.0639
2240.00,0.0639
2239.00,0.0640
2238.00,0.0640
2237.00,0.0641
2236.00,0.0640
2235.00,0.0640
2234.00,0.0640
2233.00,0.0641
2232.00,0.0640
2231.00,0.0639
2230.00,0.0638
2229.00,0.0638
2228.00,0.0639
2227.00,0.0640
2226.00,0.0641
2225.00,0.0641
2224.00,0.0640
2223.00,0.0639
2222.00,0.0638
2221.00,0.0637
2220.00,0.0636
2219.00,0.0636
2218.00,0.0636
2217.00,0.0637
2216.00,0.0639
2215.00,0.0641
2214.00,0.0642
2213.00,0.0642
2212.00,0.0640
2211.00,0.0638
2210.00,0.0637
2209.00,0.0637
2208.00,0.0638
2207.00,0.0639
2206.00,0.0640
2205.00,0.0641
2204.00,0.0640
2203.00,0.0640
2202.00,0.0640
2201.00,0.0640
2200.00,0.0639
2199.00,0.0638
2198.00,0.0638
2197.00,0.0638
2196.00,0.0638
2195.00,0.0637
2194.00,0.0636
2193.00,0.0636
2192.00,0.0636
2191.00,0.0635
2190.00,0.0633
2189.00,0.0632
2188.00,0.0631
2187.00,0.0633
2186.00,0.0636
2185.00,0.0638
2184.00,0.0637
2183.00,0.0635
2182.00,0.0633
2181.00,0.0634
2180.00,0.0635
2179.00,0.0636
2178.00,0.0637
2177.00,0.0638
2176.00,0.0639
2175.00,0.0639
2174.00,0.0639
2173.00,0.0639
2172.00,0.0639
2171.00,0.0640
2170.00,0.0641
2169.00,0.0643
2168.00,0.0643
2167.00,0.0641
2166.00,0.0641
2165.00,0.0642
2164.00,0.0644
2163.00,0.0646
2162.00,0.0647
2161.00,0.0646
2160.00,0.0643
2159.00,0.0639
2158.00,0.0636
2157.00,0.0635
2156.00,0.0635
2155.00,0.0635
2154.00,0.0637
2153.00,0.0640
2152.00,0.0641
2151.00,0.0640
2150.00,0.0638
2149.00,0.0636
2148.00,0.0637
2147.00,0.0640
2146.00,0.0644
2145.00,0.0646
2144.00,0.0647
2143.00,0.0646
2142.00,0.0647
2141.00,0.0648
2140.00,0.0648
2139.00,0.0647
2138.00,0.0645
2137.00,0.0643
2136.00,0.0641
2135.00,0.0639
2134.00,0.0639
2133.00,0.0640
2132.00,0.0641
2131.00,0.0642
2130.00,0.0643
2129.00,0.0645
2128.00,0.0646
2127.00,0.0647
2126.00,0.0646
2125.00,0.0645
2124.00,0.0644
2123.00,0.0643
2122.00,0.0644
2121.00,0.0644
2120.00,0.0644
2119.00,0.0643
2118.00,0.0642
2117.00,0.0641
2116.00,0.0640
2115.00,0.0639
2114.00,0.0638
2113.00,0.0638
2112.00,0.0639
2111.00,0.0641
2110.00,0.0643
2109.00,0.0645
2108.00,0.0646
2107.00,0.0646
2106.00,0.0647
2105.00,0.0647
2104.00,0.0646
2103.00,0.0646
2102.00,0.0646
2101.00,0.0646
2100.00,0.0644
2099.00,0.0642
2098.00,0.0641
2097.00,0.0641
2096.00,0.0642
2095.00,0.0644
2094.00,0.0645
2093.00,0.0646
2092.00,0.0646
2091.00,0.0645
2090.00,0.0644
2089.00,0.0643
2088.00,0.0643
2087.00,0.0643
2086.00,0.0645
2085.00,0.0647
2084.00,0.0648
2083.00,0.0649
2082.00,0.0648
2081.00,0.0647
2080.00,0.0646
2079.00,0.0646
2078.00,0.0646
2077.00,0.0647
2076.00,0.0647
2075.00,0.0647
2074.00,0.0647
2073.00,0.0646
2072.00,0.0646
2071.00,0.0648
2070.00,0.0649
2069.00,0.0648
2068.00,0.0645
2067.00,0.0643
2066.00,0.0643
2065.00,0.0643
2064.00,0.0645
2063.00,0.0646
2062.00,0.0647
2061.00,0.0647
2060.00,0.0647
2059.00,0.0646
2058.00,0.0646
2057.00,0.0647
2056.00,0.0647
2055.00,0.0646
2054.00,0.0647
2053.00,0.0648
2052.00,0.0649
2051.00,0.0648
2050.00,0.0646
2049.00,0.0644
2048.00,0.0644
2047.00,0.0645
2046.00,0.0648
2045.00,0.0650
2044.00,0.0651
2043.00,0.0652
2042.00,0.0651
2041.00,0.0650
2040.00,0.0647
2039.00,0.0645
2038.00,0.0645
2037.00,0.0646
2036.00,0.0648
2035.00,0.0648
2034.00,0.0647
2033.00,0.0646
2032.00,0.0647
2031.00,0.0650
2030.00,0.0651
2029.00,0.0650
2028.00,0.0648
2027.00,0.0647
2026.00,0.0647
2025.00,0.0645
2024.00,0.0641
2023.00,0.0637
2022.00,0.0636
2021.00,0.0637
2020.00,0.0638
2019.00,0.0637
2018.00,0.0634
2017.00,0.0632
2016.00,0.0633
2015.00,0.0636
2014.00,0.0641
2013.00,0.0644
2012.00,0.0644
2011.00,0.0644
2010.00,0.0644
2009.00,0.0645
2008.00,0.0647
2007.00,0.0648
2006.00,0.0647
2005.00,0.0645
2004.00,0.0644
2003.00,0.0646
2002.00,0.0650
2001.00,0.0653
2000.00,0.0654
1999.00,0.0653
1998.00,0.0652
1997.00,0.0652
1996.00,0.0654
1995.00,0.0655
1994.00,0.0656
1993.00,0.0657
1992.00,0.0656
1991.00,0.0653
1990.00,0.0651
1989.00,0.0649
1988.00,0.0648
1987.00,0.0648
1986.00,0.0649
1985.00,0.0650
1984.00,0.0651
1983.00,0.0651
1982.00,0.0650
1981.00,0.0649
1980.00,0.0647
1979.00,0.0644
1978.00,0.0641
1977.00,0.0639
1976.00,0.0640
1975.00,0.0643
1974.00,0.0646
1973.00,0.0649
1972.00,0.0649
1971.00,0.0648
1970.00,0.0649
1969.00,0.0652
1968.00,0.0653
1967.00,0.0653
1966.00,0.0651
1965.00,0.0650
1964.00,0.0650
1963.00,0.0653
1962.00,0.0655
1961.00,0.0656
1960.00,0.0657
1959.00,0.0658
1958.00,0.0659
1957.00,0.0658
1956.00,0.0657
1955.00,0.0656
1954.00,0.0657
1953.00,0.0657
1952.00,0.0656
1951.00,0.0654
1950.00,0.0652
1949.00,0.0651
1948.00,0.0651
1947.00,0.0652
1946.00,0.0652
1945.00,0.0651
1944.00,0.0650
1943.00,0.0649
1942.00,0.0649
1941.00,0.0649
1940.00,0.0648
1939.00,0.0647
1938.00,0.0648
1937.00,0.0649
1936.00,0.0650
1935.00,0.0650
1934.00,0.0650
1933.00,0.0650
1932.00,0.0651
1931.00,0.0653
1930.00,0.0654
1929.00,0.0655
1928.00,0.0656
1927.00,0.0656
1926.00,0.0657
1925.00,0.0657
1924.00,0.0658
1923.00,0.0657
1922.00,0.0657
1921.00,0.0656
1920.00,0.0656
1919.00,0.0655
1918.00,0.0654
1917.00,0.0654
1916.00,0.0655
1915.00,0.0655
1914.00,0.0656
1913.00,0.0656
1912.00,0.0655
1911.00,0.0655
1910.00,0.0655
1909.00,0.0654
1908.00,0.0654
1907.00,0.0654
1906.00,0.0655
1905.00,0.0656
1904.00,0.0656
1903.00,0.0656
1902.00,0.0656
1901.00,0.0656
1900.00,0.0656
1899.00,0.0657
1898.00,0.0658
1897.00,0.0658
1896.00,0.0657
1895.00,0.0655
1894.00,0.0655
1893.00,0.0655
1892.00,0.0655
1891.00,0.0655
1890.00,0.0656
1889.00,0.0657
1888.00,0.0657
1887.00,0.0656
1886.00,0.0656
1885.00,0.0656
1884.00,0.0657
1883.00,0.0657
1882.00,0.0658
1881.00,0.0659
1880.00,0.0659
1879.00,0.0659
1878.00,0.0658
1877.00,0.0657
1876.00,0.0657
1875.00,0.0657
1874.00,0.0658
1873.00,0.0659
1872.00,0.0659
1871.00,0.0659
1870.00,0.0658
1869.00,0.0658
1868.00,0.0657
1867.00,0.0657
1866.00,0.0658
1865.00,0.0659
1864.00,0.0658
1863.00,0.0657
1862.00,0.0656
1861.00,0.0655
1860.00,0.0656
1859.00,0.0656
1858.00,0.0657
1857.00,0.0659
1856.00,0.0659
1855.00,0.0659
1854.00,0.0659
1853.00,0.0658
1852.00,0.0658
1851.00,0.0658
1850.00,0.0658
1849.00,0.0658
1848.00,0.0658
1847.00,0.0659
1846.00,0.0661
1845.00,0.0661
1844.00,0.0660
1843.00,0.0658
1842.00,0.0658
1841.00,0.0658
1840.00,0.0659
1839.00,0.0658
1838.00,0.0658
1837.00,0.0658
1836.00,0.0658
1835.00,0.0658
1834.00,0.0658
1833.00,0.0658
1832.00,0.0658
1831.00,0.0659
1830.00,0.0659
1829.00,0.0658
1828.00,0.0658
1827.00,0.0659
1826.00,0.0659
1825.00,0.0658
1824.00,0.0658
1823.00,0.0658
1822.00,0.0659
1821.00,0.0659
1820.00,0.0659
1819.00,0.0658
1818.00,0.0657
1817.00,0.0657
1816.00,0.0657
1815.00,0.0656
1814.00,0.0655
1813.00,0.0655
1812.00,0.0655
1811.00,0.0655
1810.00,0.0655
1809.00,0.0656
1808.00,0.0657
1807.00,0.0656
1806.00,0.0656
1805.00,0.0656
1804.00,0.0655
1803.00,0.0655
1802.00,0.0655
1801.00,0.0655
1800.00,0.0655
1799.00,0.0655
1798.00,0.0654
1797.00,0.0654
1796.00,0.0654
1795.00,0.0654
1794.00,0.0654
1793.00,0.0654
1792.00,0.0655
1791.00,0.0654
1790.00,0.0654
1789.00,0.0654
1788.00,0.0654
1787.00,0.0654
1786.00,0.0654
1785.00,0.0654
1784.00,0.0653
1783.00,0.0652
1782.00,0.0651
1781.00,0.0651
1780.00,0.0650
1779.00,0.0649
1778.00,0.0649
1777.00,0.0649
1776.00,0.0649
1775.00,0.0650
1774.00,0.0650
1773.00,0.0649
1772.00,0.0648
1771.00,0.0648
1770.00,0.0649
1769.00,0.0650
1768.00,0.0650
1767.00,0.0649
1766.00,0.0648
1765.00,0.0649
1764.00,0.0650
1763.00,0.0649
1762.00,0.0648
1761.00,0.0646
1760.00,0.0646
1759.00,0.0646
1758.00,0.0646
1757.00,0.0646
1756.00,0.0645
1755.00,0.0646
1754.00,0.0647
1753.00,0.0645
1752.00,0.0643
1751.00,0.0641
1750.00,0.0640
1749.00,0.0640
1748.00,0.0641
1747.00,0.0642
1746.00,0.0642
1745.00,0.0642
1744.00,0.0643
1743.00,0.0644
1742.00,0.0646
1741.00,0.0646
1740.00,0.0646
1739.00,0.0645
1738.00,0.0646
1737.00,0.0648
1736.00,0.0650
1735.00,0.0650
1734.00,0.0649
1733.00,0.0646
1732.00,0.0644
1731.00,0.0646
1730.00,0.0647
1729.00,0.0648
1728.00,0.0648
1727.00,0.0648
1726.00,0.0648
1725.00,0.0648
1724.00,0.0648
1723.00,0.0648
1722.00,0.0648
1721.00,0.0649
1720.00,0.0648
1719.00,0.0646
1718.00,0.0645
1717.00,0.0646
1716.00,0.0647
1715.00,0.0648
1714.00,0.0649
1713.00,0.0651
1712.00,0.0651
1711.00,0.0650
1710.00,0.0650
1709.00,0.0649
1708.00,0.0649
1707.00,0.0648
1706.00,0.0648
1705.00,0.0649
1704.00,0.0651
1703.00,0.0656
1702.00,0.0658
1701.00,0.0657
1700.00,0.0653
1699.00,0.0649
1698.00,0.0652
1697.00,0.0656
1696.00,0.0656
1695.00,0.0651
1694.00,0.0648
1693.00,0.0649
1692.00,0.0650
1691.00,0.0649
1690.00,0.0648
1689.00,0.0648
1688.00,0.0651
1687.00,0.0652
1686.00,0.0649
1685.00,0.0647
1684.00,0.0646
1683.00,0.0643
1682.00,0.0644
1681.00,0.0645
1680.00,0.0645
1679.00,0.0647
1678.00,0.0649
1677.00,0.0652
1676.00,0.0652
1675.00,0.0651
1674.00,0.0648
1673.00,0.0647
1672.00,0.0646
1671.00,0.0646
1670.00,0.0647
1669.00,0.0647
1668.00,0.0646
1667.00,0.0645
1666.00,0.0646
1665.00,0.0645
1664.00,0.0644
1663.00,0.0644
1662.00,0.0644
1661.00,0.0644
1660.00,0.0645
1659.00,0.0645
1658.00,0.0646
1657.00,0.0646
1656.00,0.0647
1655.00,0.0645
1654.00,0.0646
1653.00,0.0647
1652.00,0.0639
1651.00,0.0637
1650.00,0.0640
1649.00,0.0641
1648.00,0.0641
1647.00,0.0644
1646.00,0.0645
1645.00,0.0645
1644.00,0.0645
1643.00,0.0645
1642.00,0.0644
1641.00,0.0643
1640.00,0.0642
1639.00,0.0642
1638.00,0.0642
1637.00,0.0644
1636.00,0.0647
1635.00,0.0648
1634.00,0.0645
1633.00,0.0644
1632.00,0.0643
1631.00,0.0643
1630.00,0.0642
1629.00,0.0642
1628.00,0.0642
1627.00,0.0643
1626.00,0.0645
1625.00,0.0646
1624.00,0.0647
1623.00,0.0648
1622.00,0.0648
1621.00,0.0649
1620.00,0.0650
1619.00,0.0651
1618.00,0.0651
1617.00,0.0651
1616.00,0.0650
1615.00,0.0649
1614.00,0.0651
1613.00,0.0652
1612.00,0.0651
1611.00,0.0652
1610.00,0.0653
1609.00,0.0653
1608.00,0.0653
1607.00,0.0655
1606.00,0.0657
1605.00,0.0658
1604.00,0.0658
1603.00,0.0659
1602.00,0.0659
1601.00,0.0658
1600.00,0.0658
1599.00,0.0659
1598.00,0.0660
1597.00,0.0660
1596.00,0.0661
1595.00,0.0663
1594.00,0.0664
1593.00,0.0665
1592.00,0.0665
1591.00,0.0666
1590.00,0.0666
1589.00,0.0667
1588.00,0.0668
1587.00,0.0670
1586.00,0.0671
1585.00,0.0672
1584.00,0.0672
1583.00,0.0673
1582.00,0.0673
1581.00,0.0673
1580.00,0.0673
1579.00,0.0675
1578.00,0.0677
1577.00,0.0679
1576.00,0.0679
1575.00,0.0677
1574.00,0.0677
1573.00,0.0678
1572.00,0.0679
1571.00,0.0680
1570.00,0.0681
1569.00,0.0681
1568.00,0.0682
1567.00,0.0683
1566.00,0.0683
1565.00,0.0682
1564.00,0.0682
1563.00,0.0684
1562.00,0.0686
1561.00,0.0682
1560.00,0.0680
1559.00,0.0690
1558.00,0.0693
1557.00,0.0689
1556.00,0.0689
1555.00,0.0689
1554.00,0.0689
1553.00,0.0688
1552.00,0.0689
1551.00,0.0689
1550.00,0.0690
1549.00,0.0691
1548.00,0.0690
1547.00,0.0690
1546.00,0.0688
1545.00,0.0687
1544.00,0.0687
1543.00,0.0688
1542.00,0.0687
1541.00,0.0690
1540.00,0.0695
1539.00,0.0695
1538.00,0.0693
1537.00,0.0693
1536.00,0.0694
1535.00,0.0694
1534.00,0.0694
1533.00,0.0695
1532.00,0.0695
1531.00,0.0694
1530.00,0.0693
1529.00,0.0693
1528.00,0.0692
1527.00,0.0692
1526.00,0.0692
1525.00,0.0691
1524.00,0.0691
1523.00,0.0690
1522.00,0.0691
1521.00,0.0693
1520.00,0.0694
1519.00,0.0694
1518.00,0.0694
1517.00,0.0695
1516.00,0.0696
1515.00,0.0697
1514.00,0.0697
1513.00,0.0696
1512.00,0.0694
1511.00,0.0692
1510.00,0.0690
1509.00,0.0688
1508.00,0.0691
1507.00,0.0700
1506.00,0.0703
1505.00,0.0700
1504.00,0.0698
1503.00,0.0697
1502.00,0.0696
1501.00,0.0694
1500.00,0.0694
1499.00,0.0694
1498.00,0.0695
1497.00,0.0698
1496.00,0.0700
1495.00,0.0700
1494.00,0.0699
1493.00,0.0698
1492.00,0.0696
1491.00,0.0695
1490.00,0.0696
1489.00,0.0699
1488.00,0.0700
1487.00,0.0700
1486.00,0.0700
1485.00,0.0700
1484.00,0.0699
1483.00,0.0698
1482.00,0.0698
1481.00,0.0698
1480.00,0.0698
1479.00,0.0697
1478.00,0.0695
1477.00,0.0694
1476.00,0.0694
1475.00,0.0694
1474.00,0.0695
1473.00,0.0697
1472.00,0.0700
1471.00,0.0700
1470.00,0.0700
1469.00,0.0701
1468.00,0.0701
1467.00,0.0700
1466.00,0.0700
1465.00,0.0700
1464.00,0.0699
1463.00,0.0698
1462.00,0.0696
1461.00,0.0694
1460.00,0.0693
1459.00,0.0694
1458.00,0.0697
1457.00,0.0702
1456.00,0.0701
1455.00,0.0698
1454.00,0.0697
1453.00,0.0697
1452.00,0.0697
1451.00,0.0698
1450.00,0.0699
1449.00,0.0700
1448.00,0.0702
1447.00,0.0703
1446.00,0.0703
1445.00,0.0703
1444.00,0.0702
1443.00,0.0701
1442.00,0.0700
1441.00,0.0699
1440.00,0.0701
1439.00,0.0703
1438.00,0.0704
1437.00,0.0705
1436.00,0.0705
1435.00,0.0703
1434.00,0.0701
1433.00,0.0700
1432.00,0.0700
1431.00,0.0699
1430.00,0.0699
1429.00,0.0699
1428.00,0.0698
1427.00,0.0698
1426.00,0.0698
1425.00,0.0697
1424.00,0.0697
1423.00,0.0699
1422.00,0.0700
1421.00,0.0699
1420.00,0.0699
1419.00,0.0699
1418.00,0.0700
1417.00,0.0701
1416.00,0.0702
1415.00,0.0701
1414.00,0.0699
1413.00,0.0697
1412.00,0.0695
1411.00,0.0695
1410.00,0.0694
1409.00,0.0693
1408.00,0.0693
1407.00,0.0692
1406.00,0.0692
1405.00,0.0691
1404.00,0.0692
1403.00,0.0691
1402.00,0.0690
1401.00,0.0688
1400.00,0.0687
1399.00,0.0686
1398.00,0.0686
1397.00,0.0686
1396.00,0.0687
1395.00,0.0687
1394.00,0.0687
1393.00,0.0686
1392.00,0.0686
1391.00,0.0686
1390.00,0.0685
1389.00,0.0684
1388.00,0.0684
1387.00,0.0684
1386.00,0.0685
1385.00,0.0685
1384.00,0.0685
1383.00,0.0685
1382.00,0.0685
1381.00,0.0686
1380.00,0.0687
1379.00,0.0687
1378.00,0.0688
1377.00,0.0688
1376.00,0.0688
1375.00,0.0690
1374.00,0.0692
1373.00,0.0694
1372.00,0.0694
1371.00,0.0695
1370.00,0.0696
1369.00,0.0696
1368.00,0.0697
1367.00,0.0698
1366.00,0.0697
1365.00,0.0696
1364.00,0.0696
1363.00,0.0698
1362.00,0.0701
1361.00,0.0703
1360.00,0.0704
1359.00,0.0704
1358.00,0.0704
1357.00,0.0705
1356.00,0.0706
1355.00,0.0707
1354.00,0.0707
1353.00,0.0708
1352.00,0.0708
1351.00,0.0707
1350.00,0.0707
1349.00,0.0707
1348.00,0.0708
1347.00,0.0709
1346.00,0.0709
1345.00,0.0709
1344.00,0.0708
1343.00,0.0707
1342.00,0.0707
1341.00,0.0707
1340.00,0.0708
1339.00,0.0711
1338.00,0.0713
1337.00,0.0714
1336.00,0.0714
1335.00,0.0715
1334.00,0.0715
1333.00,0.0715
1332.00,0.0716
1331.00,0.0716
1330.00,0.0717
1329.00,0.0717
1328.00,0.0717
1327.00,0.0717
1326.00,0.0718
1325.00,0.0718
1324.00,0.0719
1323.00,0.0720
1322.00,0.0721
1321.00,0.0722
1320.00,0.0723
1319.00,0.0723
1318.00,0.0723
1317.00,0.0722
1316.00,0.0722
1315.00,0.0722
1314.00,0.0723
1313.00,0.0724
1312.00,0.0726
1311.00,0.0728
1310.00,0.0728
1309.00,0.0729
1308.00,0.0729
1307.00,0.0729
1306.00,0.0729
1305.00,0.0729
1304.00,0.0731
1303.00,0.0733
1302.00,0.0734
1301.00,0.0734
1300.00,0.0734
1299.00,0.0734
1298.00,0.0734
1297.00,0.0733
1296.00,0.0733
1295.00,0.0734
1294.00,0.0735
1293.00,0.0736
1292.00,0.0737
1291.00,0.0738
1290.00,0.0739
1289.00,0.0739
1288.00,0.0739
1287.00,0.0740
1286.00,0.0740
1285.00,0.0741
1284.00,0.0742
1283.00,0.0743
1282.00,0.0744
1281.00,0.0744
1280.00,0.0744
1279.00,0.0744
1278.00,0.0744
1277.00,0.0744
1276.00,0.0745
1275.00,0.0745
1274.00,0.0746
1273.00,0.0745
1272.00,0.0745
1271.00,0.0746
1270.00,0.0747
1269.00,0.0747
1268.00,0.0748
1267.00,0.0749
1266.00,0.0751
1265.00,0.0751
1264.00,0.0751
1263.00,0.0751
1262.00,0.0751
1261.00,0.0751
1260.00,0.0752
1259.00,0.0753
1258.00,0.0755
1257.00,0.0755
1256.00,0.0755
1255.00,0.0755
1254.00,0.0756
1253.00,0.0757
1252.00,0.0758
1251.00,0.0758
1250.00,0.0758
1249.00,0.0759
1248.00,0.0760
1247.00,0.0762
1246.00,0.0764
1245.00,0.0765
1244.00,0.0767
1243.00,0.0768
1242.00,0.0768
1241.00,0.0768
1240.00,0.0768
1239.00,0.0768
1238.00,0.0769
1237.00,0.0771
1236.00,0.0772
1235.00,0.0773
1234.00,0.0774
1233.00,0.0775
1232.00,0.0775
1231.00,0.0777
1230.00,0.0778
1229.00,0.0779
1228.00,0.0780
1227.00,0.0781
1226.00,0.0782
1225.00,0.0782
1224.00,0.0782
1223.00,0.0782
1222.00,0.0783
1221.00,0.0784
1220.00,0.0786
1219.00,0.0787
1218.00,0.0787
1217.00,0.0788
1216.00,0.0789
1215.00,0.0789
1214.00,0.0789
1213.00,0.0789
1212.00,0.0790
1211.00,0.0792
1210.00,0.0794
1209.00,0.0795
1208.00,0.0796
1207.00,0.0796
1206.00,0.0795
1205.00,0.0795
1204.00,0.0795
1203.00,0.0795
1202.00,0.0796
1201.00,0.0796
1200.00,0.0797
1199.00,0.0798
1198.00,0.0798
1197.00,0.0798
1196.00,0.0798
1195.00,0.0799
1194.00,0.0799
1193.00,0.0800
1192.00,0.0800
1191.00,0.0801
1190.00,0.0801
1189.00,0.0800
1188.00,0.0799
1187.00,0.0799
1186.00,0.0799
1185.00,0.0800
1184.00,0.0799
1183.00,0.0799
1182.00,0.0798
1181.00,0.0797
1180.00,0.0796
1179.00,0.0796
1178.00,0.0796
1177.00,0.0797
1176.00,0.0797
1175.00,0.0797
1174.00,0.0798
1173.00,0.0798
1172.00,0.0798
1171.00,0.0797
1170.00,0.0796
1169.00,0.0796
1168.00,0.0796
1167.00,0.0796
1166.00,0.0796
1165.00,0.0796
1164.00,0.0796
1163.00,0.0796
1162.00,0.0796
1161.00,0.0797
1160.00,0.0798
1159.00,0.0798
1158.00,0.0798
1157.00,0.0798
1156.00,0.0798
1155.00,0.0799
1154.00,0.0800
1153.00,0.0800
1152.00,0.0799
1151.00,0.0798
1150.00,0.0797
1149.00,0.0797
1148.00,0.0797
1147.00,0.0798
1146.00,0.0799
1145.00,0.0800
1144.00,0.0801
1143.00,0.0803
1142.00,0.0805
1141.00,0.0806
1140.00,0.0805
1139.00,0.0804
1138.00,0.0804
1137.00,0.0805
1136.00,0.0807
1135.00,0.0808
1134.00,0.0809
1133.00,0.0810
1132.00,0.0810
1131.00,0.0810
1130.00,0.0810
1129.00,0.0812
1128.00,0.0814
1127.00,0.0814
1126.00,0.0813
1125.00,0.0811
1124.00,0.0811
1123.00,0.0814
1122.00,0.0818
1121.00,0.0822
1120.00,0.0824
1119.00,0.0825
1118.00,0.0825
1117.00,0.0825
1116.00,0.0826
1115.00,0.0828
1114.00,0.0829
1113.00,0.0830
1112.00,0.0830
1111.00,0.0830
1110.00,0.0830
1109.00,0.0831
1108.00,0.0832
1107.00,0.0832
1106.00,0.0832
1105.00,0.0831
1104.00,0.0831
1103.00,0.0833
1102.00,0.0835
1101.00,0.0837
1100.00,0.0839
1099.00,0.0839
1098.00,0.0839
1097.00,0.0839
1096.00,0.0838
1095.00,0.0838
1094.00,0.0837
1093.00,0.0838
1092.00,0.0839
1091.00,0.0840
1090.00,0.0839
1089.00,0.0838
1088.00,0.0837
1087.00,0.0837
1086.00,0.0838
1085.00,0.0840
1084.00,0.0841
1083.00,0.0843
1082.00,0.0844
1081.00,0.0846
1080.00,0.0847
1079.00,0.0849
1078.00,0.0851
1077.00,0.0853
1076.00,0.0853
1075.00,0.0851
1074.00,0.0848
1073.00,0.0847
1072.00,0.0847
1071.00,0.0847
1070.00,0.0847
1069.00,0.0846
1068.00,0.0847
1067.00,0.0848
1066.00,0.0850
1065.00,0.0852
1064.00,0.0855
1063.00,0.0856
1062.00,0.0857
1061.00,0.0856
1060.00,0.0855
1059.00,0.0855
1058.00,0.0856
1057.00,0.0859
1056.00,0.0861
1055.00,0.0863
1054.00,0.0865
1053.00,0.0867
1052.00,0.0869
1051.00,0.0870
1050.00,0.0871
1049.00,0.0874
1048.00,0.0876
1047.00,0.0878
1046.00,0.0879
1045.00,0.0879
1044.00,0.0879
1043.00,0.0879
1042.00,0.0879
1041.00,0.0878
1040.00,0.0878
1039.00,0.0880
1038.00,0.0883
1037.00,0.0885
1036.00,0.0886
1035.00,0.0886
1034.00,0.0887
1033.00,0.0888
1032.00,0.0889
1031.00,0.0890
1030.00,0.0888
1029.00,0.0886
1028.00,0.0884
1027.00,0.0883
1026.00,0.0883
1025.00,0.0884
1024.00,0.0886
1023.00,0.0886
1022.00,0.0885
1021.00,0.0884
1020.00,0.0883
1019.00,0.0882
1018.00,0.0882
1017.00,0.0883
1016.00,0.0885
1015.00,0.0888
1014.00,0.0890
1013.00,0.0891
1012.00,0.0891
1011.00,0.0892
1010.00,0.0892
1009.00,0.0893
1008.00,0.0894
1007.00,0.0894
1006.00,0.0894
1005.00,0.0894
1004.00,0.0895
1003.00,0.0895
1002.00,0.0896
1001.00,0.0896
1000.00,0.0894
999.00,0.0892
998.00,0.0890
997.00,0.0889
996.00,0.0889
995.00,0.0889
994.00,0.0888
993.00,0.0887
992.00,0.0885
991.00,0.0883
990.00,0.0883
989.00,0.0883
988.00,0.0884
987.00,0.0886
986.00,0.0887
985.00,0.0888
984.00,0.0887
983.00,0.0885
982.00,0.0883
981.00,0.0883
980.00,0.0883
979.00,0.0883
978.00,0.0882
977.00,0.0880
976.00,0.0879
975.00,0.0878
974.00,0.0878
973.00,0.0879
972.00,0.0879
971.00,0.0879
970.00,0.0877
969.00,0.0875
968.00,0.0873
967.00,0.0872
966.00,0.0871
965.00,0.0871
964.00,0.0871
963.00,0.0872
962.00,0.0874
961.00,0.0874
960.00,0.0874
959.00,0.0873
958.00,0.0872
957.00,0.0872
956.00,0.0872
955.00,0.0872
954.00,0.0872
953.00,0.0871
952.00,0.0871
951.00,0.0873
950.00,0.0876
949.00,0.0877
948.00,0.0878
947.00,0.0877
946.00,0.0875
945.00,0.0874
944.00,0.0874
943.00,0.0874
942.00,0.0874
941.00,0.0874
940.00,0.0876
939.00,0.0878
938.00,0.0880
937.00,0.0881
936.00,0.0881
935.00,0.0880
934.00,0.0880
933.00,0.0882
932.00,0.0885
931.00,0.0888
930.00,0.0891
929.00,0.0892
928.00,0.0893
927.00,0.0893
926.00,0.0894
925.00,0.0894
924.00,0.0894
923.00,0.0895
922.00,0.0895
921.00,0.0895
920.00,0.0895
919.00,0.0895
918.00,0.0895
917.00,0.0897
916.00,0.0900
915.00,0.0902
914.00,0.0902
913.00,0.0901
912.00,0.0899
911.00,0.0899
910.00,0.0898
909.00,0.0896
908.00,0.0894
907.00,0.0892
906.00,0.0893
905.00,0.0895
904.00,0.0899
903.00,0.0903
902.00,0.0905
901.00,0.0904
900.00,0.0903
899.00,0.0902
898.00,0.0903
897.00,0.0904
896.00,0.0905
895.00,0.0905
894.00,0.0904
893.00,0.0903
892.00,0.0902
891.00,0.0901
890.00,0.0901
889.00,0.0902
888.00,0.0902
887.00,0.0901
886.00,0.0898
885.00,0.0897
884.00,0.0898
883.00,0.0901
882.00,0.0904
881.00,0.0904
880.00,0.0903
879.00,0.0902
878.00,0.0900
877.00,0.0898
876.00,0.0896
875.00,0.0896
874.00,0.0896
873.00,0.0896
872.00,0.0896
871.00,0.0896
870.00,0.0896
869.00,0.0896
868.00,0.0896
867.00,0.0895
866.00,0.0895
865.00,0.0895
864.00,0.0896
863.00,0.0898
862.00,0.0898
861.00,0.0899
860.00,0.0899
859.00,0.0897
858.00,0.0893
857.00,0.0891
856.00,0.0891
855.00,0.0894
854.00,0.0896
853.00,0.0897
852.00,0.0897
851.00,0.0897
850.00,0.0897
849.00,0.0898
848.00,0.0899
847.00,0.0899
846.00,0.0900
845.00,0.0900
844.00,0.0900
843.00,0.0899
842.00,0.0898
841.00,0.0896
840.00,0.0895
839.00,0.0893
838.00,0.0893
837.00,0.0894
836.00,0.0896
835.00,0.0895
834.00,0.0894
833.00,0.0893
832.00,0.0893
831.00,0.0893
830.00,0.0892
829.00,0.0891
828.00,0.0890
827.00,0.0889
826.00,0.0891
825.00,0.0894
824.00,0.0897
823.00,0.0899
822.00,0.0900
821.00,0.0901
820.00,0.0902
819.00,0.0903
818.00,0.0903
817.00,0.0901
816.00,0.0899
815.00,0.0898
814.00,0.0899
813.00,0.0901
812.00,0.0903
811.00,0.0904
810.00,0.0904
809.00,0.0904
808.00,0.0904
807.00,0.0903
806.00,0.0901
805.00,0.0899
804.00,0.0898
803.00,0.0898
802.00,0.0900
801.00,0.0904
800.00,0.0908
799.00,0.0911
798.00,0.0910
797.00,0.0908
796.00,0.0905
795.00,0.0904
794.00,0.0904
793.00,0.0903
792.00,0.0904
791.00,0.0906
790.00,0.0908
789.00,0.0910
788.00,0.0909
787.00,0.0909
786.00,0.0909
785.00,0.0911
784.00,0.0913
783.00,0.0915
782.00,0.0914
781.00,0.0913
780.00,0.0912
779.00,0.0912
778.00,0.0914
777.00,0.0916
776.00,0.0918
775.00,0.0917
774.00,0.0914
773.00,0.0911
772.00,0.0911
771.00,0.0912
770.00,0.0914
769.00,0.0915
768.00,0.0915
767.00,0.0914
766.00,0.0912
765.00,0.0911
764.00,0.0910
763.00,0.0910
762.00,0.0908
761.00,0.0907
760.00,0.0907
759.00,0.0910
758.00,0.0914
757.00,0.0918
756.00,0.0920
755.00,0.0920
754.00,0.0919
753.00,0.0918
752.00,0.0919
751.00,0.0921
750.00,0.0923
749.00,0.0925
748.00,0.0927
747.00,0.0927
746.00,0.0926
745.00,0.0924
744.00,0.0924
743.00,0.0924
742.00,0.0925
741.00,0.0924
740.00,0.0922
739.00,0.0920
738.00,0.0919
737.00,0.0919
736.00,0.0919
735.00,0.0919
734.00,0.0920
733.00,0.0921
732.00,0.0921
731.00,0.0920
730.00,0.0920
729.00,0.0921
728.00,0.0925
727.00,0.0929
726.00,0.0932
725.00,0.0933
724.00,0.0930
723.00,0.0926
722.00,0.0925
721.00,0.0925
720.00,0.0927
719.00,0.0928
718.00,0.0928
717.00,0.0927
716.00,0.0927
715.00,0.0926
714.00,0.0925
713.00,0.0928
712.00,0.0932
711.00,0.0935
710.00,0.0935
709.00,0.0934
708.00,0.0933
707.00,0.0934
706.00,0.0935
705.00,0.0938
704.00,0.0941
703.00,0.0944
702.00,0.0944
701.00,0.0941
700.00,0.0938
699.00,0.0938
698.00,0.0939
697.00,0.0941
696.00,0.0943
695.00,0.0943
694.00,0.0944
693.00,0.0945
692.00,0.0945
691.00,0.0945
690.00,0.0945
689.00,0.0945
688.00,0.0945
687.00,0.0944
686.00,0.0943
685.00,0.0943
684.00,0.0944
683.00,0.0944
682.00,0.0943
681.00,0.0942
680.00,0.0942
679.00,0.0941
678.00,0.0942
677.00,0.0945
676.00,0.0948
675.00,0.0949
674.00,0.0948
673.00,0.0947
672.00,0.0948
671.00,0.0952
670.00,0.0957
669.00,0.0966
668.00,0.0978
667.00,0.0983
666.00,0.0978
665.00,0.0971
664.00,0.0966
663.00,0.0962
662.00,0.0955
661.00,0.0946
660.00,0.0937
659.00,0.0933
658.00,0.0933
657.00,0.0940
656.00,0.0948
655.00,0.0954
654.00,0.0950
653.00,0.0944
652.00,0.0940
651.00,0.0939
650.00,0.0943
