Created as New Dataset,Monday, April 03 2023
cm-1,A
4000.00,0.0398
3999.00,0.0398
3998.00,0.0398
3997.00,0.0398
3996.00,0.0398
3995.00,0.0398
3994.00,0.0398
3993.00,0.0398
3992.00,0.0398
3991.00,0.0398
3990.00,0.0398
3989.00,0.0398
3988.00,0.0398
3987.00,0.0398
3986.00,0.0398
3985.00,0.0398
3984.00,0.0398
3983.00,0.0398
3982.00,0.0398
3981.00,0.0397
3980.00,0.0398
3979.00,0.0398
3978.00,0.0398
3977.00,0.0398
3976.00,0.0397
3975.00,0.0397
3974.00,0.0397
3973.00,0.0397
3972.00,0.0397
3971.00,0.0397
3970.00,0.0397
3969.00,0.0397
3968.00,0.0396
3967.00,0.0396
3966.00,0.0397
3965.00,0.0397
3964.00,0.0397
3963.00,0.0397
3962.00,0.0397
3961.00,0.0397
3960.00,0.0397
3959.00,0.0397
3958.00,0.0397
3957.00,0.0397
3956.00,0.0397
3955.00,0.0396
3954.00,0.0396
3953.00,0.0396
3952.00,0.0396
3951.00,0.0396
3950.00,0.0396
3949.00,0.0396
3948.00,0.0396
3947.00,0.0397
3946.00,0.0397
3945.00,0.0397
3944.00,0.0396
3943.00,0.0395
3942.00,0.0395
3941.00,0.0395
3940.00,0.0396
3939.00,0.0396
3938.00,0.0396
3937.00,0.0396
3936.00,0.0396
3935.00,0.0397
3934.00,0.0398
3933.00,0.0398
3932.00,0.0398
3931.00,0.0397
3930.00,0.0397
3929.00,0.0396
3928.00,0.0396
3927.00,0.0396
3926.00,0.0395
3925.00,0.0395
3924.00,0.0395
3923.00,0.0395
3922.00,0.0396
3921.00,0.0397
3920.00,0.0397
3919.00,0.0397
3918.00,0.0397
3917.00,0.0397
3916.00,0.0396
3915.00,0.0396
3914.00,0.0397
3913.00,0.0397
3912.00,0.0396
3911.00,0.0396
3910.00,0.0396
3909.00,0.0396
3908.00,0.0395
3907.00,0.0395
3906.00,0.0395
3905.00,0.0395
3904.00,0.0396
3903.00,0.0398
3902.00,0.0400
3901.00,0.0400
3900.00,0.0399
3899.00,0.0397
3898.00,0.0396
3897.00,0.0397
3896.00,0.0397
3895.00,0.0398
3894.00,0.0398
3893.00,0.0398
3892.00,0.0397
3891.00,0.0395
3890.00,0.0396
3889.00,0.0398
3888.00,0.0399
3887.00,0.0399
3886.00,0.0398
3885.00,0.0397
3884.00,0.0398
3883.00,0.0399
3882.00,0.0398
3881.00,0.0395
3880.00,0.0394
3879.00,0.0395
3878.00,0.0397
3877.00,0.0398
3876.00,0.0397
3875.00,0.0395
3874.00,0.0394
3873.00,0.0396
3872.00,0.0398
3871.00,0.0397
3870.00,0.0395
3869.00,0.0395
3868.00,0.0397
3867.00,0.0400
3866.00,0.0399
3865.00,0.0397
3864.00,0.0396
3863.00,0.0396
3862.00,0.0397
3861.00,0.0397
3860.00,0.0398
3859.00,0.0397
3858.00,0.0396
3857.00,0.0395
3856.00,0.0395
3855.00,0.0399
3854.00,0.0402
3853.00,0.0399
3852.00,0.0396
3851.00,0.0396
3850.00,0.0397
3849.00,0.0397
3848.00,0.0397
3847.00,0.0397
3846.00,0.0397
3845.00,0.0397
3844.00,0.0396
3843.00,0.0396
3842.00,0.0397
3841.00,0.0398
3840.00,0.0399
3839.00,0.0399
3838.00,0.0398
3837.00,0.0396
3836.00,0.0396
3835.00,0.0396
3834.00,0.0397
3833.00,0.0397
3832.00,0.0397
3831.00,0.0398
3830.00,0.0399
3829.00,0.0400
3828.00,0.0399
3827.00,0.0397
3826.00,0.0395
3825.00,0.0396
3824.00,0.0398
3823.00,0.0399
3822.00,0.0399
3821.00,0.0397
3820.00,0.0397
3819.00,0.0400
3818.00,0.0402
3817.00,0.0400
3816.00,0.0397
3815.00,0.0396
3814.00,0.0397
3813.00,0.0398
3812.00,0.0397
3811.00,0.0396
3810.00,0.0396
3809.00,0.0398
3808.00,0.0398
3807.00,0.0398
3806.00,0.0397
3805.00,0.0399
3804.00,0.0400
3803.00,0.0400
3802.00,0.0398
3801.00,0.0397
3800.00,0.0397
3799.00,0.0398
3798.00,0.0398
3797.00,0.0396
3796.00,0.0395
3795.00,0.0396
3794.00,0.0397
3793.00,0.0397
3792.00,0.0397
3791.00,0.0396
3790.00,0.0396
3789.00,0.0397
3788.00,0.0397
3787.00,0.0397
3786.00,0.0397
3785.00,0.0396
3784.00,0.0396
3783.00,0.0396
3782.00,0.0397
3781.00,0.0397
3780.00,0.0396
3779.00,0.0395
3778.00,0.0396
3777.00,0.0396
3776.00,0.0397
3775.00,0.0396
3774.00,0.0396
3773.00,0.0397
3772.00,0.0398
3771.00,0.0398
3770.00,0.0398
3769.00,0.0398
3768.00,0.0399
3767.00,0.0399
3766.00,0.0397
3765.00,0.0396
3764.00,0.0396
3763.00,0.0398
3762.00,0.0398
3761.00,0.0398
3760.00,0.0398
3759.00,0.0398
3758.00,0.0397
3757.00,0.0397
3756.00,0.0397
3755.00,0.0397
3754.00,0.0397
3753.00,0.0398
3752.00,0.0402
3751.00,0.0405
3750.00,0.0404
3749.00,0.0403
3748.00,0.0403
3747.00,0.0403
3746.00,0.0401
3745.00,0.0399
3744.00,0.0397
3743.00,0.0397
3742.00,0.0399
3741.00,0.0399
3740.00,0.0397
3739.00,0.0396
3738.00,0.0396
3737.00,0.0397
3736.00,0.0397
3735.00,0.0397
3734.00,0.0396
3733.00,0.0395
3732.00,0.0395
3731.00,0.0395
3730.00,0.0396
3729.00,0.0397
3728.00,0.0397
3727.00,0.0396
3726.00,0.0396
3725.00,0.0396
3724.00,0.0396
3723.00,0.0396
3722.00,0.0395
3721.00,0.0395
3720.00,0.0396
3719.00,0.0396
3718.00,0.0396
3717.00,0.0395
3716.00,0.0395
3715.00,0.0395
3714.00,0.0394
3713.00,0.0395
3712.00,0.0395
3711.00,0.0395
3710.00,0.0394
3709.00,0.0395
3708.00,0.0395
3707.00,0.0395
3706.00,0.0395
3705.00,0.0395
3704.00,0.0395
3703.00,0.0395
3702.00,0.0395
3701.00,0.0395
3700.00,0.0396
3699.00,0.0397
3698.00,0.0398
3697.00,0.0398
3696.00,0.0397
3695.00,0.0397
3694.00,0.0398
3693.00,0.0398
3692.00,0.0399
3691.00,0.0400
3690.00,0.0401
3689.00,0.0399
3688.00,0.0397
3687.00,0.0397
3686.00,0.0398
3685.00,0.0398
3684.00,0.0398
3683.00,0.0398
3682.00,0.0397
3681.00,0.0396
3680.00,0.0394
3679.00,0.0393
3678.00,0.0394
3677.00,0.0396
3676.00,0.0396
3675.00,0.0395
3674.00,0.0398
3673.00,0.0401
3672.00,0.0402
3671.00,0.0400
3670.00,0.0397
3669.00,0.0395
3668.00,0.0395
3667.00,0.0395
3666.00,0.0396
3665.00,0.0395
3664.00,0.0395
3663.00,0.0395
3662.00,0.0395
3661.00,0.0395
3660.00,0.0395
3659.00,0.0396
3658.00,0.0397
3657.00,0.0397
3656.00,0.0397
3655.00,0.0397
3654.00,0.0397
3653.00,0.0396
3652.00,0.0394
3651.00,0.0395
3650.00,0.0398
3649.00,0.0399
3648.00,0.0396
3647.00,0.0394
3646.00,0.0395
3645.00,0.0397
3644.00,0.0398
3643.00,0.0398
3642.00,0.0398
3641.00,0.0397
3640.00,0.0397
3639.00,0.0396
3638.00,0.0396
3637.00,0.0396
3636.00,0.0397
3635.00,0.0397
3634.00,0.0397
3633.00,0.0397
3632.00,0.0397
3631.00,0.0399
3630.00,0.0401
3629.00,0.0401
3628.00,0.0401
3627.00,0.0402
3626.00,0.0403
3625.00,0.0402
3624.00,0.0401
3623.00,0.0401
3622.00,0.0401
3621.00,0.0402
3620.00,0.0403
3619.00,0.0403
3618.00,0.0402
3617.00,0.0403
3616.00,0.0403
3615.00,0.0403
3614.00,0.0402
3613.00,0.0401
3612.00,0.0402
3611.00,0.0404
3610.00,0.0405
3609.00,0.0404
3608.00,0.0403
3607.00,0.0402
3606.00,0.0402
3605.00,0.0402
3604.00,0.0402
3603.00,0.0403
3602.00,0.0403
3601.00,0.0403
3600.00,0.0402
3599.00,0.0402
3598.00,0.0402
3597.00,0.0401
3596.00,0.0401
3595.00,0.0402
3594.00,0.0403
3593.00,0.0404
3592.00,0.0404
3591.00,0.0405
3590.00,0.0405
3589.00,0.0404
3588.00,0.0404
3587.00,0.0404
3586.00,0.0404
3585.00,0.0405
3584.00,0.0406
3583.00,0.0406
3582.00,0.0406
3581.00,0.0406
3580.00,0.0406
3579.00,0.0405
3578.00,0.0405
3577.00,0.0405
3576.00,0.0404
3575.00,0.0405
3574.00,0.0405
3573.00,0.0405
3572.00,0.0405
3571.00,0.0405
3570.00,0.0405
3569.00,0.0406
3568.00,0.0407
3567.00,0.0407
3566.00,0.0407
3565.00,0.0406
3564.00,0.0407
3563.00,0.0407
3562.00,0.0407
3561.00,0.0408
3560.00,0.0408
3559.00,0.0408
3558.00,0.0408
3557.00,0.0408
3556.00,0.0409
3555.00,0.0409
3554.00,0.0409
3553.00,0.0409
3552.00,0.0409
3551.00,0.0409
3550.00,0.0409
3549.00,0.0410
3548.00,0.0411
3547.00,0.0411
3546.00,0.0411
3545.00,0.0411
3544.00,0.0411
3543.00,0.0411
3542.00,0.0411
3541.00,0.0411
3540.00,0.0411
3539.00,0.0411
3538.00,0.0411
3537.00,0.0411
3536.00,0.0411
3535.00,0.0411
3534.00,0.0411
3533.00,0.0411
3532.00,0.0411
3531.00,0.0411
3530.00,0.0411
3529.00,0.0412
3528.00,0.0412
3527.00,0.0412
3526.00,0.0413
3525.00,0.0413
3524.00,0.0413
3523.00,0.0413
3522.00,0.0412
3521.00,0.0412
3520.00,0.0413
3519.00,0.0413
3518.00,0.0413
3517.00,0.0414
3516.00,0.0415
3515.00,0.0415
3514.00,0.0415
3513.00,0.0414
3512.00,0.0413
3511.00,0.0413
3510.00,0.0414
3509.00,0.0414
3508.00,0.0415
3507.00,0.0415
3506.00,0.0415
3505.00,0.0415
3504.00,0.0415
3503.00,0.0416
3502.00,0.0416
3501.00,0.0416
3500.00,0.0417
3499.00,0.0417
3498.00,0.0417
3497.00,0.0417
3496.00,0.0418
3495.00,0.0418
3494.00,0.0418
3493.00,0.0418
3492.00,0.0417
3491.00,0.0417
3490.00,0.0418
3489.00,0.0418
3488.00,0.0418
3487.00,0.0418
3486.00,0.0418
3485.00,0.0418
3484.00,0.0418
3483.00,0.0418
3482.00,0.0418
3481.00,0.0418
3480.00,0.0419
3479.00,0.0419
3478.00,0.0420
3477.00,0.0420
3476.00,0.0421
3475.00,0.0421
3474.00,0.0421
3473.00,0.0421
3472.00,0.0421
3471.00,0.0421
3470.00,0.0421
3469.00,0.0421
3468.00,0.0421
3467.00,0.0421
3466.00,0.0421
3465.00,0.0421
3464.00,0.0421
3463.00,0.0421
3462.00,0.0421
3461.00,0.0421
3460.00,0.0422
3459.00,0.0422
3458.00,0.0422
3457.00,0.0422
3456.00,0.0422
3455.00,0.0422
3454.00,0.0422
3453.00,0.0422
3452.00,0.0423
3451.00,0.0423
3450.00,0.0423
3449.00,0.0423
3448.00,0.0423
3447.00,0.0423
3446.00,0.0423
3445.00,0.0424
3444.00,0.0424
3443.00,0.0424
3442.00,0.0424
3441.00,0.0424
3440.00,0.0424
3439.00,0.0424
3438.00,0.0424
3437.00,0.0424
3436.00,0.0424
3435.00,0.0425
3434.00,0.0425
3433.00,0.0425
3432.00,0.0426
3431.00,0.0426
3430.00,0.0426
3429.00,0.0426
3428.00,0.0426
3427.00,0.0426
3426.00,0.0426
3425.00,0.0426
3424.00,0.0426
3423.00,0.0426
3422.00,0.0426
3421.00,0.0426
3420.00,0.0426
3419.00,0.0426
3418.00,0.0426
3417.00,0.0426
3416.00,0.0427
3415.00,0.0427
3414.00,0.0427
3413.00,0.0427
3412.00,0.0427
3411.00,0.0427
3410.00,0.0426
3409.00,0.0426
3408.00,0.0426
3407.00,0.0427
3406.00,0.0428
3405.00,0.0428
3404.00,0.0429
3403.00,0.0429
3402.00,0.0429
3401.00,0.0429
3400.00,0.0429
3399.00,0.0429
3398.00,0.0429
3397.00,0.0429
3396.00,0.0429
3395.00,0.0429
3394.00,0.0430
3393.00,0.0430
3392.00,0.0431
3391.00,0.0431
3390.00,0.0431
3389.00,0.0431
3388.00,0.0431
3387.00,0.0431
3386.00,0.0430
3385.00,0.0430
3384.00,0.0430
3383.00,0.0430
3382.00,0.0430
3381.00,0.0430
3380.00,0.0430
3379.00,0.0430
3378.00,0.0430
3377.00,0.0431
3376.00,0.0431
3375.00,0.0431
3374.00,0.0431
3373.00,0.0431
3372.00,0.0431
3371.00,0.0431
3370.00,0.0431
3369.00,0.0432
3368.00,0.0432
3367.00,0.0432
3366.00,0.0433
3365.00,0.0433
3364.00,0.0432
3363.00,0.0432
3362.00,0.0432
3361.00,0.0433
3360.00,0.0433
3359.00,0.0433
3358.00,0.0433
3357.00,0.0434
3356.00,0.0434
3355.00,0.0434
3354.00,0.0434
3353.00,0.0434
3352.00,0.0434
3351.00,0.0435
3350.00,0.0435
3349.00,0.0435
3348.00,0.0434
3347.00,0.0434
3346.00,0.0434
3345.00,0.0434
3344.00,0.0434
3343.00,0.0435
3342.00,0.0435
3341.00,0.0435
3340.00,0.0435
3339.00,0.0435
3338.00,0.0435
3337.00,0.0435
3336.00,0.0435
3335.00,0.0436
3334.00,0.0436
3333.00,0.0436
3332.00,0.0436
3331.00,0.0436
3330.00,0.0436
3329.00,0.0436
3328.00,0.0436
3327.00,0.0436
3326.00,0.0436
3325.00,0.0436
3324.00,0.0436
3323.00,0.0436
3322.00,0.0435
3321.00,0.0435
3320.00,0.0435
3319.00,0.0436
3318.00,0.0436
3317.00,0.0437
3316.00,0.0437
3315.00,0.0437
3314.00,0.0437
3313.00,0.0437
3312.00,0.0436
3311.00,0.0436
3310.00,0.0436
3309.00,0.0437
3308.00,0.0437
3307.00,0.0437
3306.00,0.0437
3305.00,0.0437
3304.00,0.0437
3303.00,0.0438
3302.00,0.0438
3301.00,0.0439
3300.00,0.0439
3299.00,0.0438
3298.00,0.0438
3297.00,0.0438
3296.00,0.0438
3295.00,0.0438
3294.00,0.0438
3293.00,0.0438
3292.00,0.0439
3291.00,0.0439
3290.00,0.0439
3289.00,0.0439
3288.00,0.0439
3287.00,0.0438
3286.00,0.0438
3285.00,0.0438
3284.00,0.0438
3283.00,0.0438
3282.00,0.0439
3281.00,0.0439
3280.00,0.0440
3279.00,0.0440
3278.00,0.0440
3277.00,0.0440
3276.00,0.0440
3275.00,0.0440
3274.00,0.0440
3273.00,0.0440
3272.00,0.0440
3271.00,0.0440
3270.00,0.0440
3269.00,0.0440
3268.00,0.0439
3267.00,0.0439
3266.00,0.0440
3265.00,0.0439
3264.00,0.0439
3263.00,0.0439
3262.00,0.0439
3261.00,0.0439
3260.00,0.0439
3259.00,0.0439
3258.00,0.0439
3257.00,0.0439
3256.00,0.0440
3255.00,0.0440
3254.00,0.0440
3253.00,0.0440
3252.00,0.0440
3251.00,0.0440
3250.00,0.0441
3249.00,0.0441
3248.00,0.0441
3247.00,0.0441
3246.00,0.0441
3245.00,0.0441
3244.00,0.0441
3243.00,0.0441
3242.00,0.0440
3241.00,0.0440
3240.00,0.0440
3239.00,0.0440
3238.00,0.0440
3237.00,0.0440
3236.00,0.0440
3235.00,0.0440
3234.00,0.0440
3233.00,0.0440
3232.00,0.0439
3231.00,0.0439
3230.00,0.0439
3229.00,0.0439
3228.00,0.0440
3227.00,0.0440
3226.00,0.0441
3225.00,0.0441
3224.00,0.0441
3223.00,0.0440
3222.00,0.0441
3221.00,0.0441
3220.00,0.0441
3219.00,0.0442
3218.00,0.0442
3217.00,0.0442
3216.00,0.0441
3215.00,0.0441
3214.00,0.0441
3213.00,0.0441
3212.00,0.0441
3211.00,0.0441
3210.00,0.0440
3209.00,0.0440
3208.00,0.0440
3207.00,0.0440
3206.00,0.0440
3205.00,0.0440
3204.00,0.0440
3203.00,0.0440
3202.00,0.0440
3201.00,0.0440
3200.00,0.0440
3199.00,0.0441
3198.00,0.0441
3197.00,0.0440
3196.00,0.0440
3195.00,0.0440
3194.00,0.0440
3193.00,0.0440
3192.00,0.0440
3191.00,0.0440
3190.00,0.0440
3189.00,0.0440
3188.00,0.0440
3187.00,0.0440
3186.00,0.0441
3185.00,0.0441
3184.00,0.0440
3183.00,0.0440
3182.00,0.0440
3181.00,0.0440
3180.00,0.0440
3179.00,0.0439
3178.00,0.0439
3177.00,0.0439
3176.00,0.0439
3175.00,0.0439
3174.00,0.0440
3173.00,0.0440
3172.00,0.0440
3171.00,0.0440
3170.00,0.0440
3169.00,0.0440
3168.00,0.0439
3167.00,0.0439
3166.00,0.0439
3165.00,0.0439
3164.00,0.0439
3163.00,0.0439
3162.00,0.0439
3161.00,0.0439
3160.00,0.0439
3159.00,0.0439
3158.00,0.0438
3157.00,0.0438
3156.00,0.0438
3155.00,0.0437
3154.00,0.0438
3153.00,0.0438
3152.00,0.0438
3151.00,0.0438
3150.00,0.0438
3149.00,0.0438
3148.00,0.0438
3147.00,0.0438
3146.00,0.0438
3145.00,0.0438
3144.00,0.0438
3143.00,0.0438
3142.00,0.0438
3141.00,0.0438
3140.00,0.0438
3139.00,0.0438
3138.00,0.0439
3137.00,0.0439
3136.00,0.0438
3135.00,0.0438
3134.00,0.0437
3133.00,0.0437
3132.00,0.0437
3131.00,0.0437
3130.00,0.0437
3129.00,0.0437
3128.00,0.0437
3127.00,0.0437
3126.00,0.0437
3125.00,0.0437
3124.00,0.0437
3123.00,0.0437
3122.00,0.0437
3121.00,0.0437
3120.00,0.0437
3119.00,0.0437
3118.00,0.0438
3117.00,0.0437
3116.00,0.0437
3115.00,0.0437
3114.00,0.0436
3113.00,0.0436
3112.00,0.0436
3111.00,0.0436
3110.00,0.0436
3109.00,0.0436
3108.00,0.0436
3107.00,0.0436
3106.00,0.0436
3105.00,0.0436
3104.00,0.0436
3103.00,0.0436
3102.00,0.0436
3101.00,0.0436
3100.00,0.0436
3099.00,0.0436
3098.00,0.0435
3097.00,0.0434
3096.00,0.0435
3095.00,0.0435
3094.00,0.0435
3093.00,0.0435
3092.00,0.0435
3091.00,0.0435
3090.00,0.0435
3089.00,0.0435
3088.00,0.0435
3087.00,0.0435
3086.00,0.0436
3085.00,0.0436
3084.00,0.0436
3083.00,0.0435
3082.00,0.0435
3081.00,0.0435
3080.00,0.0435
3079.00,0.0435
3078.00,0.0435
3077.00,0.0435
3076.00,0.0435
3075.00,0.0435
3074.00,0.0435
3073.00,0.0435
3072.00,0.0435
3071.00,0.0435
3070.00,0.0434
3069.00,0.0434
3068.00,0.0434
3067.00,0.0434
3066.00,0.0434
3065.00,0.0434
3064.00,0.0434
3063.00,0.0434
3062.00,0.0434
3061.00,0.0434
3060.00,0.0434
3059.00,0.0434
3058.00,0.0433
3057.00,0.0433
3056.00,0.0433
3055.00,0.0434
3054.00,0.0434
3053.00,0.0434
3052.00,0.0433
3051.00,0.0433
3050.00,0.0433
3049.00,0.0433
3048.00,0.0433
3047.00,0.0433
3046.00,0.0433
3045.00,0.0434
3044.00,0.0433
3043.00,0.0433
3042.00,0.0433
3041.00,0.0433
3040.00,0.0432
3039.00,0.0432
3038.00,0.0432
3037.00,0.0432
3036.00,0.0432
3035.00,0.0432
3034.00,0.0432
3033.00,0.0432
3032.00,0.0432
3031.00,0.0431
3030.00,0.0431
3029.00,0.0431
3028.00,0.0431
3027.00,0.0430
3026.00,0.0430
3025.00,0.0430
3024.00,0.0430
3023.00,0.0430
3022.00,0.0430
3021.00,0.0430
3020.00,0.0430
3019.00,0.0430
3018.00,0.0430
3017.00,0.0430
3016.00,0.0430
3015.00,0.0430
3014.00,0.0430
3013.00,0.0430
3012.00,0.0430
3011.00,0.0429
3010.00,0.0428
3009.00,0.0427
3008.00,0.0426
3007.00,0.0426
3006.00,0.0425
3005.00,0.0425
3004.00,0.0425
3003.00,0.0425
3002.00,0.0424
3001.00,0.0424
3000.00,0.0424
2999.00,0.0423
2998.00,0.0423
2997.00,0.0422
2996.00,0.0421
2995.00,0.0421
2994.00,0.0421
2993.00,0.0421
2992.00,0.0421
2991.00,0.0420
2990.00,0.0420
2989.00,0.0420
2988.00,0.0419
2987.00,0.0419
2986.00,0.0418
2985.00,0.0417
2984.00,0.0416
2983.00,0.0415
2982.00,0.0414
2981.00,0.0413
2980.00,0.0413
2979.00,0.0414
2978.00,0.0414
2977.00,0.0415
2976.00,0.0415
2975.00,0.0415
2974.00,0.0415
2973.00,0.0414
2972.00,0.0414
2971.00,0.0413
2970.00,0.0413
2969.00,0.0413
2968.00,0.0413
2967.00,0.0413
2966.00,0.0412
2965.00,0.0412
2964.00,0.0412
2963.00,0.0412
2962.00,0.0411
2961.00,0.0411
2960.00,0.0410
2959.00,0.0410
2958.00,0.0410
2957.00,0.0410
2956.00,0.0411
2955.00,0.0411
2954.00,0.0412
2953.00,0.0412
2952.00,0.0412
2951.00,0.0412
2950.00,0.0412
2949.00,0.0412
2948.00,0.0412
2947.00,0.0411
2946.00,0.0411
2945.00,0.0411
2944.00,0.0411
2943.00,0.0410
2942.00,0.0410
2941.00,0.0409
2940.00,0.0408
2939.00,0.0407
2938.00,0.0406
2937.00,0.0405
2936.00,0.0404
2935.00,0.0403
2934.00,0.0402
2933.00,0.0401
2932.00,0.0400
2931.00,0.0399
2930.00,0.0398
2929.00,0.0396
2928.00,0.0395
2927.00,0.0394
2926.00,0.0394
2925.00,0.0394
2924.00,0.0395
2923.00,0.0395
2922.00,0.0395
2921.00,0.0395
2920.00,0.0395
2919.00,0.0396
2918.00,0.0396
2917.00,0.0397
2916.00,0.0398
2915.00,0.0399
2914.00,0.0401
2913.00,0.0403
2912.00,0.0404
2911.00,0.0405
2910.00,0.0406
2909.00,0.0406
2908.00,0.0407
2907.00,0.0408
2906.00,0.0408
2905.00,0.0409
2904.00,0.0409
2903.00,0.0409
2902.00,0.0410
2901.00,0.0410
2900.00,0.0410
2899.00,0.0411
2898.00,0.0411
2897.00,0.0411
2896.00,0.0411
2895.00,0.0411
2894.00,0.0411
2893.00,0.0411
2892.00,0.0411
2891.00,0.0411
2890.00,0.0411
2889.00,0.0411
2888.00,0.0411
2887.00,0.0412
2886.00,0.0412
2885.00,0.0412
2884.00,0.0412
2883.00,0.0412
2882.00,0.0412
2881.00,0.0413
2880.00,0.0413
2879.00,0.0413
2878.00,0.0413
2877.00,0.0413
2876.00,0.0413
2875.00,0.0412
2874.00,0.0412
2873.00,0.0411
2872.00,0.0411
2871.00,0.0410
2870.00,0.0410
2869.00,0.0409
2868.00,0.0409
2867.00,0.0409
2866.00,0.0408
2865.00,0.0408
2864.00,0.0408
2863.00,0.0408
2862.00,0.0407
2861.00,0.0407
2860.00,0.0406
2859.00,0.0405
2858.00,0.0404
2857.00,0.0403
2856.00,0.0403
2855.00,0.0402
2854.00,0.0402
2853.00,0.0402
2852.00,0.0402
2851.00,0.0402
2850.00,0.0403
2849.00,0.0405
2848.00,0.0406
2847.00,0.0407
2846.00,0.0408
2845.00,0.0409
2844.00,0.0410
2843.00,0.0411
2842.00,0.0412
2841.00,0.0412
2840.00,0.0412
2839.00,0.0413
2838.00,0.0413
2837.00,0.0414
2836.00,0.0414
2835.00,0.0413
2834.00,0.0413
2833.00,0.0413
2832.00,0.0413
2831.00,0.0414
2830.00,0.0414
2829.00,0.0414
2828.00,0.0414
2827.00,0.0413
2826.00,0.0413
2825.00,0.0413
2824.00,0.0413
2823.00,0.0413
2822.00,0.0414
2821.00,0.0414
2820.00,0.0414
2819.00,0.0414
2818.00,0.0414
2817.00,0.0414
2816.00,0.0414
2815.00,0.0414
2814.00,0.0414
2813.00,0.0414
2812.00,0.0414
2811.00,0.0413
2810.00,0.0413
2809.00,0.0413
2808.00,0.0413
2807.00,0.0412
2806.00,0.0412
2805.00,0.0412
2804.00,0.0412
2803.00,0.0413
2802.00,0.0413
2801.00,0.0413
2800.00,0.0413
2799.00,0.0412
2798.00,0.0412
2797.00,0.0412
2796.00,0.0412
2795.00,0.0412
2794.00,0.0412
2793.00,0.0412
2792.00,0.0412
2791.00,0.0412
2790.00,0.0412
2789.00,0.0412
2788.00,0.0412
2787.00,0.0412
2786.00,0.0412
2785.00,0.0411
2784.00,0.0411
2783.00,0.0411
2782.00,0.0411
2781.00,0.0411
2780.00,0.0411
2779.00,0.0411
2778.00,0.0411
2777.00,0.0411
2776.00,0.0411
2775.00,0.0411
2774.00,0.0411
2773.00,0.0410
2772.00,0.0410
2771.00,0.0410
2770.00,0.0410
2769.00,0.0411
2768.00,0.0411
2767.00,0.0411
2766.00,0.0410
2765.00,0.0410
2764.00,0.0410
2763.00,0.0410
2762.00,0.0410
2761.00,0.0410
2760.00,0.0410
2759.00,0.0409
2758.00,0.0409
2757.00,0.0409
2756.00,0.0409
2755.00,0.0410
2754.00,0.0410
2753.00,0.0410
2752.00,0.0410
2751.00,0.0410
2750.00,0.0409
2749.00,0.0409
2748.00,0.0409
2747.00,0.0409
2746.00,0.0409
2745.00,0.0409
2744.00,0.0409
2743.00,0.0408
2742.00,0.0408
2741.00,0.0408
2740.00,0.0408
2739.00,0.0409
2738.00,0.0409
2737.00,0.0409
2736.00,0.0408
2735.00,0.0408
2734.00,0.0408
2733.00,0.0408
2732.00,0.0408
2731.00,0.0407
2730.00,0.0408
2729.00,0.0408
2728.00,0.0408
2727.00,0.0408
2726.00,0.0408
2725.00,0.0407
2724.00,0.0407
2723.00,0.0407
2722.00,0.0407
2721.00,0.0407
2720.00,0.0407
2719.00,0.0407
2718.00,0.0407
2717.00,0.0407
2716.00,0.0407
2715.00,0.0407
2714.00,0.0407
2713.00,0.0407
2712.00,0.0407
2711.00,0.0407
2710.00,0.0407
2709.00,0.0407
2708.00,0.0407
2707.00,0.0407
2706.00,0.0406
2705.00,0.0406
2704.00,0.0406
2703.00,0.0405
2702.00,0.0405
2701.00,0.0406
2700.00,0.0406
2699.00,0.0406
2698.00,0.0405
2697.00,0.0406
2696.00,0.0406
2695.00,0.0406
2694.00,0.0406
2693.00,0.0406
2692.00,0.0406
2691.00,0.0406
2690.00,0.0406
2689.00,0.0405
2688.00,0.0405
2687.00,0.0406
2686.00,0.0406
2685.00,0.0406
2684.00,0.0406
2683.00,0.0406
2682.00,0.0406
2681.00,0.0406
2680.00,0.0406
2679.00,0.0405
2678.00,0.0405
2677.00,0.0405
2676.00,0.0405
2675.00,0.0405
2674.00,0.0405
2673.00,0.0405
2672.00,0.0405
2671.00,0.0405
2670.00,0.0405
2669.00,0.0405
2668.00,0.0405
2667.00,0.0405
2666.00,0.0406
2665.00,0.0406
2664.00,0.0406
2663.00,0.0406
2662.00,0.0406
2661.00,0.0406
2660.00,0.0406
2659.00,0.0406
2658.00,0.0406
2657.00,0.0406
2656.00,0.0406
2655.00,0.0406
2654.00,0.0407
2653.00,0.0407
2652.00,0.0407
2651.00,0.0407
2650.00,0.0407
2649.00,0.0407
2648.00,0.0406
2647.00,0.0406
2646.00,0.0406
2645.00,0.0406
2644.00,0.0406
2643.00,0.0406
2642.00,0.0406
2641.00,0.0407
2640.00,0.0407
2639.00,0.0407
2638.00,0.0407
2637.00,0.0407
2636.00,0.0407
2635.00,0.0407
2634.00,0.0407
2633.00,0.0407
2632.00,0.0406
2631.00,0.0406
2630.00,0.0406
2629.00,0.0407
2628.00,0.0407
2627.00,0.0407
2626.00,0.0407
2625.00,0.0407
2624.00,0.0407
2623.00,0.0407
2622.00,0.0407
2621.00,0.0407
2620.00,0.0407
2619.00,0.0407
2618.00,0.0407
2617.00,0.0407
2616.00,0.0407
2615.00,0.0407
2614.00,0.0407
2613.00,0.0408
2612.00,0.0408
2611.00,0.0408
2610.00,0.0407
2609.00,0.0407
2608.00,0.0407
2607.00,0.0407
2606.00,0.0407
2605.00,0.0407
2604.00,0.0407
2603.00,0.0407
2602.00,0.0407
2601.00,0.0407
2600.00,0.0407
2599.00,0.0407
2598.00,0.0407
2597.00,0.0407
2596.00,0.0407
2595.00,0.0407
2594.00,0.0407
2593.00,0.0407
2592.00,0.0407
2591.00,0.0407
2590.00,0.0407
2589.00,0.0407
2588.00,0.0407
2587.00,0.0407
2586.00,0.0406
2585.00,0.0406
2584.00,0.0406
2583.00,0.0407
2582.00,0.0407
2581.00,0.0408
2580.00,0.0408
2579.00,0.0408
2578.00,0.0408
2577.00,0.0408
2576.00,0.0408
2575.00,0.0408
2574.00,0.0408
2573.00,0.0408
2572.00,0.0408
2571.00,0.0408
2570.00,0.0408
2569.00,0.0408
2568.00,0.0407
2567.00,0.0407
2566.00,0.0407
2565.00,0.0407
2564.00,0.0408
2563.00,0.0408
2562.00,0.0407
2561.00,0.0406
2560.00,0.0405
2559.00,0.0405
2558.00,0.0405
2557.00,0.0406
2556.00,0.0406
2555.00,0.0407
2554.00,0.0407
2553.00,0.0407
2552.00,0.0407
2551.00,0.0407
2550.00,0.0407
2549.00,0.0408
2548.00,0.0408
2547.00,0.0408
2546.00,0.0407
2545.00,0.0407
2544.00,0.0406
2543.00,0.0406
2542.00,0.0406
2541.00,0.0406
2540.00,0.0406
2539.00,0.0406
2538.00,0.0406
2537.00,0.0406
2536.00,0.0406
2535.00,0.0406
2534.00,0.0406
2533.00,0.0406
2532.00,0.0406
2531.00,0.0406
2530.00,0.0406
2529.00,0.0406
2528.00,0.0406
2527.00,0.0406
2526.00,0.0406
2525.00,0.0406
2524.00,0.0406
2523.00,0.0406
2522.00,0.0406
2521.00,0.0406
2520.00,0.0406
2519.00,0.0406
2518.00,0.0406
2517.00,0.0406
2516.00,0.0406
2515.00,0.0407
2514.00,0.0407
2513.00,0.0407
2512.00,0.0407
2511.00,0.0407
2510.00,0.0406
2509.00,0.0406
2508.00,0.0406
2507.00,0.0406
2506.00,0.0406
2505.00,0.0407
2504.00,0.0407
2503.00,0.0407
2502.00,0.0407
2501.00,0.0406
2500.00,0.0405
2499.00,0.0405
2498.00,0.0405
2497.00,0.0406
2496.00,0.0406
2495.00,0.0406
2494.00,0.0407
2493.00,0.0407
2492.00,0.0407
2491.00,0.0407
2490.00,0.0407
2489.00,0.0407
2488.00,0.0407
2487.00,0.0406
2486.00,0.0406
2485.00,0.0406
2484.00,0.0406
2483.00,0.0406
2482.00,0.0406
2481.00,0.0406
2480.00,0.0406
2479.00,0.0406
2478.00,0.0406
2477.00,0.0406
2476.00,0.0406
2475.00,0.0406
2474.00,0.0406
2473.00,0.0406
2472.00,0.0406
2471.00,0.0405
2470.00,0.0405
2469.00,0.0405
2468.00,0.0405
2467.00,0.0406
2466.00,0.0406
2465.00,0.0406
2464.00,0.0406
2463.00,0.0406
2462.00,0.0406
2461.00,0.0407
2460.00,0.0407
2459.00,0.0407
2458.00,0.0407
2457.00,0.0407
2456.00,0.0407
2455.00,0.0407
2454.00,0.0407
2453.00,0.0407
2452.00,0.0407
2451.00,0.0407
2450.00,0.0407
2449.00,0.0406
2448.00,0.0406
2447.00,0.0407
2446.00,0.0406
2445.00,0.0406
2444.00,0.0406
2443.00,0.0406
2442.00,0.0406
2441.00,0.0406
2440.00,0.0406
2439.00,0.0406
2438.00,0.0406
2437.00,0.0406
2436.00,0.0405
2435.00,0.0405
2434.00,0.0405
2433.00,0.0405
2432.00,0.0405
2431.00,0.0404
2430.00,0.0404
2429.00,0.0404
2428.00,0.0404
2427.00,0.0405
2426.00,0.0405
2425.00,0.0406
2424.00,0.0406
2423.00,0.0405
2422.00,0.0405
2421.00,0.0405
2420.00,0.0405
2419.00,0.0405
2418.00,0.0405
2417.00,0.0404
2416.00,0.0404
2415.00,0.0404
2414.00,0.0404
2413.00,0.0404
2412.00,0.0404
2411.00,0.0404
2410.00,0.0404
2409.00,0.0403
2408.00,0.0403
2407.00,0.0403
2406.00,0.0403
2405.00,0.0403
2404.00,0.0403
2403.00,0.0403
2402.00,0.0403
2401.00,0.0403
2400.00,0.0403
2399.00,0.0403
2398.00,0.0403
2397.00,0.0403
2396.00,0.0403
2395.00,0.0402
2394.00,0.0402
2393.00,0.0402
2392.00,0.0402
2391.00,0.0402
2390.00,0.0402
2389.00,0.0402
2388.00,0.0401
2387.00,0.0400
2386.00,0.0399
2385.00,0.0398
2384.00,0.0396
2383.00,0.0395
2382.00,0.0395
2381.00,0.0395
2380.00,0.0394
2379.00,0.0395
2378.00,0.0395
2377.00,0.0397
2376.00,0.0398
2375.00,0.0399
2374.00,0.0400
2373.00,0.0400
2372.00,0.0399
2371.00,0.0398
2370.00,0.0398
2369.00,0.0397
2368.00,0.0396
2367.00,0.0395
2366.00,0.0395
2365.00,0.0395
2364.00,0.0395
2363.00,0.0396
2362.00,0.0398
2361.00,0.0401
2360.00,0.0404
2359.00,0.0407
2358.00,0.0408
2357.00,0.0408
2356.00,0.0409
2355.00,0.0410
2354.00,0.0409
2353.00,0.0406
2352.00,0.0403
2351.00,0.0399
2350.00,0.0396
2349.00,0.0393
2348.00,0.0389
2347.00,0.0385
2346.00,0.0385
2345.00,0.0389
2344.00,0.0394
2343.00,0.0397
2342.00,0.0398
2341.00,0.0400
2340.00,0.0401
2339.00,0.0403
2338.00,0.0404
2337.00,0.0404
2336.00,0.0405
2335.00,0.0405
2334.00,0.0406
2333.00,0.0407
2332.00,0.0407
2331.00,0.0407
2330.00,0.0408
2329.00,0.0410
2328.00,0.0411
2327.00,0.0413
2326.00,0.0413
2325.00,0.0412
2324.00,0.0411
2323.00,0.0412
2322.00,0.0413
2321.00,0.0414
2320.00,0.0414
2319.00,0.0414
2318.00,0.0413
2317.00,0.0412
2316.00,0.0410
2315.00,0.0409
2314.00,0.0407
2313.00,0.0406
2312.00,0.0406
2311.00,0.0407
2310.00,0.0407
2309.00,0.0407
2308.00,0.0407
2307.00,0.0406
2306.00,0.0406
2305.00,0.0405
2304.00,0.0404
2303.00,0.0403
2302.00,0.0402
2301.00,0.0401
2300.00,0.0400
2299.00,0.0400
2298.00,0.0400
2297.00,0.0400
2296.00,0.0400
2295.00,0.0400
2294.00,0.0401
2293.00,0.0402
2292.00,0.0402
2291.00,0.0402
2290.00,0.0403
2289.00,0.0403
2288.00,0.0403
2287.00,0.0403
2286.00,0.0403
2285.00,0.0403
2284.00,0.0402
2283.00,0.0401
2282.00,0.0401
2281.00,0.0400
2280.00,0.0400
2279.00,0.0399
2278.00,0.0398
2277.00,0.0397
2276.00,0.0397
2275.00,0.0397
2274.00,0.0397
2273.00,0.0398
2272.00,0.0398
2271.00,0.0398
2270.00,0.0398
2269.00,0.0398
2268.00,0.0397
2267.00,0.0396
2266.00,0.0397
2265.00,0.0397
2264.00,0.0398
2263.00,0.0398
2262.00,0.0399
2261.00,0.0399
2260.00,0.0399
2259.00,0.0399
2258.00,0.0399
2257.00,0.0398
2256.00,0.0397
2255.00,0.0397
2254.00,0.0397
2253.00,0.0398
2252.00,0.0398
2251.00,0.0397
2250.00,0.0397
2249.00,0.0397
2248.00,0.0397
2247.00,0.0397
2246.00,0.0397
2245.00,0.0397
2244.00,0.0397
2243.00,0.0397
2242.00,0.0397
2241.00,0.0397
2240.00,0.0397
2239.00,0.0397
2238.00,0.0397
2237.00,0.0397
2236.00,0.0397
2235.00,0.0398
2234.00,0.0398
2233.00,0.0399
2232.00,0.0399
2231.00,0.0399
2230.00,0.0398
2229.00,0.0398
2228.00,0.0397
2227.00,0.0398
2226.00,0.0398
2225.00,0.0398
2224.00,0.0398
2223.00,0.0398
2222.00,0.0398
2221.00,0.0398
2220.00,0.0398
2219.00,0.0397
2218.00,0.0396
2217.00,0.0395
2216.00,0.0396
2215.00,0.0397
2214.00,0.0398
2213.00,0.0399
2212.00,0.0398
2211.00,0.0398
2210.00,0.0397
2209.00,0.0396
2208.00,0.0396
2207.00,0.0395
2206.00,0.0394
2205.00,0.0394
2204.00,0.0394
2203.00,0.0395
2202.00,0.0396
2201.00,0.0397
2200.00,0.0399
2199.00,0.0401
2198.00,0.0402
2197.00,0.0402
2196.00,0.0400
2195.00,0.0398
2194.00,0.0397
2193.00,0.0397
2192.00,0.0397
2191.00,0.0396
2190.00,0.0397
2189.00,0.0397
2188.00,0.0398
2187.00,0.0399
2186.00,0.0399
2185.00,0.0398
2184.00,0.0396
2183.00,0.0394
2182.00,0.0394
2181.00,0.0395
2180.00,0.0397
2179.00,0.0397
2178.00,0.0395
2177.00,0.0393
2176.00,0.0391
2175.00,0.0391
2174.00,0.0393
2173.00,0.0395
2172.00,0.0397
2171.00,0.0398
2170.00,0.0398
2169.00,0.0399
2168.00,0.0398
2167.00,0.0398
2166.00,0.0397
2165.00,0.0397
2164.00,0.0398
2163.00,0.0398
2162.00,0.0398
2161.00,0.0395
2160.00,0.0391
2159.00,0.0387
2158.00,0.0385
2157.00,0.0386
2156.00,0.0387
2155.00,0.0387
2154.00,0.0387
2153.00,0.0388
2152.00,0.0389
2151.00,0.0389
2150.00,0.0388
2149.00,0.0388
2148.00,0.0388
2147.00,0.0388
2146.00,0.0388
2145.00,0.0388
2144.00,0.0389
2143.00,0.0390
2142.00,0.0390
2141.00,0.0391
2140.00,0.0390
2139.00,0.0390
2138.00,0.0389
2137.00,0.0387
2136.00,0.0386
2135.00,0.0385
2134.00,0.0384
2133.00,0.0385
2132.00,0.0386
2131.00,0.0386
2130.00,0.0387
2129.00,0.0387
2128.00,0.0386
2127.00,0.0386
2126.00,0.0387
2125.00,0.0387
2124.00,0.0387
2123.00,0.0387
2122.00,0.0387
2121.00,0.0388
2120.00,0.0388
2119.00,0.0389
2118.00,0.0390
2117.00,0.0391
2116.00,0.0391
2115.00,0.0391
2114.00,0.0390
2113.00,0.0389
2112.00,0.0389
2111.00,0.0388
2110.00,0.0388
2109.00,0.0388
2108.00,0.0388
2107.00,0.0388
2106.00,0.0388
2105.00,0.0387
2104.00,0.0386
2103.00,0.0386
2102.00,0.0385
2101.00,0.0385
2100.00,0.0385
2099.00,0.0385
2098.00,0.0385
2097.00,0.0386
2096.00,0.0386
2095.00,0.0386
2094.00,0.0385
2093.00,0.0385
2092.00,0.0385
2091.00,0.0384
2090.00,0.0384
2089.00,0.0384
2088.00,0.0384
2087.00,0.0384
2086.00,0.0385
2085.00,0.0385
2084.00,0.0385
2083.00,0.0385
2082.00,0.0385
2081.00,0.0384
2080.00,0.0384
2079.00,0.0384
2078.00,0.0384
2077.00,0.0385
2076.00,0.0386
2075.00,0.0386
2074.00,0.0385
2073.00,0.0384
2072.00,0.0383
2071.00,0.0383
2070.00,0.0383
2069.00,0.0383
2068.00,0.0383
2067.00,0.0382
2066.00,0.0382
2065.00,0.0382
2064.00,0.0382
2063.00,0.0381
2062.00,0.0380
2061.00,0.0379
2060.00,0.0379
2059.00,0.0379
2058.00,0.0379
2057.00,0.0380
2056.00,0.0380
2055.00,0.0381
2054.00,0.0383
2053.00,0.0384
2052.00,0.0385
2051.00,0.0384
2050.00,0.0383
2049.00,0.0382
2048.00,0.0381
2047.00,0.0380
2046.00,0.0381
2045.00,0.0382
2044.00,0.0382
2043.00,0.0381
2042.00,0.0380
2041.00,0.0380
2040.00,0.0381
2039.00,0.0383
2038.00,0.0385
2037.00,0.0388
2036.00,0.0390
2035.00,0.0391
2034.00,0.0390
2033.00,0.0388
2032.00,0.0386
2031.00,0.0384
2030.00,0.0384
2029.00,0.0385
2028.00,0.0385
2027.00,0.0384
2026.00,0.0383
2025.00,0.0382
2024.00,0.0381
2023.00,0.0381
2022.00,0.0382
2021.00,0.0383
2020.00,0.0383
2019.00,0.0383
2018.00,0.0383
2017.00,0.0383
2016.00,0.0383
2015.00,0.0383
2014.00,0.0382
2013.00,0.0381
2012.00,0.0381
2011.00,0.0381
2010.00,0.0382
2009.00,0.0382
2008.00,0.0382
2007.00,0.0381
2006.00,0.0379
2005.00,0.0379
2004.00,0.0378
2003.00,0.0378
2002.00,0.0379
2001.00,0.0379
2000.00,0.0379
1999.00,0.0379
1998.00,0.0380
1997.00,0.0380
1996.00,0.0380
1995.00,0.0379
1994.00,0.0379
1993.00,0.0379
1992.00,0.0380
1991.00,0.0380
1990.00,0.0380
1989.00,0.0379
1988.00,0.0378
1987.00,0.0377
1986.00,0.0378
1985.00,0.0379
1984.00,0.0381
1983.00,0.0382
1982.00,0.0383
1981.00,0.0383
1980.00,0.0383
1979.00,0.0381
1978.00,0.0378
1977.00,0.0376
1976.00,0.0374
1975.00,0.0373
1974.00,0.0371
1973.00,0.0371
1972.00,0.0371
1971.00,0.0372
1970.00,0.0372
1969.00,0.0373
1968.00,0.0373
1967.00,0.0372
1966.00,0.0373
1965.00,0.0374
1964.00,0.0374
1963.00,0.0374
1962.00,0.0373
1961.00,0.0373
1960.00,0.0374
1959.00,0.0374
1958.00,0.0374
1957.00,0.0374
1956.00,0.0373
1955.00,0.0372
1954.00,0.0372
1953.00,0.0371
1952.00,0.0370
1951.00,0.0369
1950.00,0.0368
1949.00,0.0369
1948.00,0.0370
1947.00,0.0370
1946.00,0.0371
1945.00,0.0371
1944.00,0.0371
1943.00,0.0370
1942.00,0.0370
1941.00,0.0369
1940.00,0.0368
1939.00,0.0367
1938.00,0.0367
1937.00,0.0368
1936.00,0.0368
1935.00,0.0368
1934.00,0.0368
1933.00,0.0367
1932.00,0.0366
1931.00,0.0366
1930.00,0.0365
1929.00,0.0365
1928.00,0.0366
1927.00,0.0366
1926.00,0.0366
1925.00,0.0366
1924.00,0.0365
1923.00,0.0364
1922.00,0.0363
1921.00,0.0362
1920.00,0.0363
1919.00,0.0363
1918.00,0.0363
1917.00,0.0363
1916.00,0.0363
1915.00,0.0363
1914.00,0.0364
1913.00,0.0363
1912.00,0.0362
1911.00,0.0362
1910.00,0.0361
1909.00,0.0361
1908.00,0.0360
1907.00,0.0360
1906.00,0.0360
1905.00,0.0360
1904.00,0.0360
1903.00,0.0359
1902.00,0.0359
1901.00,0.0359
1900.00,0.0359
1899.00,0.0359
1898.00,0.0359
1897.00,0.0359
1896.00,0.0358
1895.00,0.0356
1894.00,0.0356
1893.00,0.0356
1892.00,0.0356
1891.00,0.0356
1890.00,0.0355
1889.00,0.0354
1888.00,0.0354
1887.00,0.0354
1886.00,0.0354
1885.00,0.0354
1884.00,0.0354
1883.00,0.0354
1882.00,0.0354
1881.00,0.0354
1880.00,0.0353
1879.00,0.0352
1878.00,0.0352
1877.00,0.0352
1876.00,0.0352
1875.00,0.0352
1874.00,0.0352
1873.00,0.0352
1872.00,0.0352
1871.00,0.0351
1870.00,0.0351
1869.00,0.0350
1868.00,0.0349
1867.00,0.0349
1866.00,0.0349
1865.00,0.0350
1864.00,0.0350
1863.00,0.0349
1862.00,0.0348
1861.00,0.0348
1860.00,0.0347
1859.00,0.0347
1858.00,0.0346
1857.00,0.0346
1856.00,0.0346
1855.00,0.0345
1854.00,0.0345
1853.00,0.0345
1852.00,0.0345
1851.00,0.0345
1850.00,0.0345
1849.00,0.0345
1848.00,0.0345
1847.00,0.0345
1846.00,0.0344
1845.00,0.0344
1844.00,0.0342
1843.00,0.0341
1842.00,0.0340
1841.00,0.0341
1840.00,0.0341
1839.00,0.0341
1838.00,0.0341
1837.00,0.0340
1836.00,0.0340
1835.00,0.0340
1834.00,0.0340
1833.00,0.0340
1832.00,0.0340
1831.00,0.0339
1830.00,0.0337
1829.00,0.0335
1828.00,0.0334
1827.00,0.0333
1826.00,0.0333
1825.00,0.0333
1824.00,0.0333
1823.00,0.0333
1822.00,0.0333
1821.00,0.0333
1820.00,0.0333
1819.00,0.0333
1818.00,0.0332
1817.00,0.0331
1816.00,0.0331
1815.00,0.0331
1814.00,0.0331
1813.00,0.0331
1812.00,0.0330
1811.00,0.0329
1810.00,0.0328
1809.00,0.0328
1808.00,0.0328
1807.00,0.0327
1806.00,0.0327
1805.00,0.0327
1804.00,0.0327
1803.00,0.0326
1802.00,0.0326
1801.00,0.0325
1800.00,0.0325
1799.00,0.0325
1798.00,0.0326
1797.00,0.0327
1796.00,0.0327
1795.00,0.0328
1794.00,0.0328
1793.00,0.0327
1792.00,0.0325
1791.00,0.0322
1790.00,0.0321
1789.00,0.0322
1788.00,0.0323
1787.00,0.0323
1786.00,0.0324
1785.00,0.0324
1784.00,0.0324
1783.00,0.0324
1782.00,0.0324
1781.00,0.0323
1780.00,0.0323
1779.00,0.0323
1778.00,0.0324
1777.00,0.0325
1776.00,0.0326
1775.00,0.0326
1774.00,0.0327
1773.00,0.0327
1772.00,0.0326
1771.00,0.0325
1770.00,0.0325
1769.00,0.0326
1768.00,0.0326
1767.00,0.0327
1766.00,0.0327
1765.00,0.0327
1764.00,0.0328
1763.00,0.0327
1762.00,0.0327
1761.00,0.0326
1760.00,0.0327
1759.00,0.0327
1758.00,0.0327
1757.00,0.0327
1756.00,0.0327
1755.00,0.0328
1754.00,0.0329
1753.00,0.0331
1752.00,0.0332
1751.00,0.0333
1750.00,0.0333
1749.00,0.0331
1748.00,0.0331
1747.00,0.0331
1746.00,0.0332
1745.00,0.0332
1744.00,0.0332
1743.00,0.0333
1742.00,0.0334
1741.00,0.0336
1740.00,0.0337
1739.00,0.0338
1738.00,0.0339
1737.00,0.0341
1736.00,0.0343
1735.00,0.0346
1734.00,0.0349
1733.00,0.0348
1732.00,0.0347
1731.00,0.0346
1730.00,0.0345
1729.00,0.0346
1728.00,0.0347
1727.00,0.0349
1726.00,0.0351
1725.00,0.0352
1724.00,0.0353
1723.00,0.0354
1722.00,0.0355
1721.00,0.0355
1720.00,0.0354
1719.00,0.0354
1718.00,0.0356
1717.00,0.0358
1716.00,0.0357
1715.00,0.0357
1714.00,0.0357
1713.00,0.0359
1712.00,0.0360
1711.00,0.0360
1710.00,0.0360
1709.00,0.0361
1708.00,0.0361
1707.00,0.0361
1706.00,0.0361
1705.00,0.0361
1704.00,0.0362
1703.00,0.0362
1702.00,0.0362
1701.00,0.0365
1700.00,0.0368
1699.00,0.0369
1698.00,0.0369
1697.00,0.0368
1696.00,0.0365
1695.00,0.0363
1694.00,0.0363
1693.00,0.0365
1692.00,0.0365
1691.00,0.0365
1690.00,0.0365
1689.00,0.0366
1688.00,0.0366
1687.00,0.0365
1686.00,0.0363
1685.00,0.0362
1684.00,0.0360
1683.00,0.0359
1682.00,0.0361
1681.00,0.0363
1680.00,0.0364
1679.00,0.0364
1678.00,0.0365
1677.00,0.0365
1676.00,0.0366
1675.00,0.0367
1674.00,0.0368
1673.00,0.0367
1672.00,0.0367
1671.00,0.0367
1670.00,0.0367
1669.00,0.0366
1668.00,0.0366
1667.00,0.0367
1666.00,0.0368
1665.00,0.0369
1664.00,0.0369
1663.00,0.0370
1662.00,0.0371
1661.00,0.0371
1660.00,0.0372
1659.00,0.0373
1658.00,0.0373
1657.00,0.0373
1656.00,0.0371
1655.00,0.0369
1654.00,0.0372
1653.00,0.0373
1652.00,0.0373
1651.00,0.0376
1650.00,0.0377
1649.00,0.0377
1648.00,0.0379
1647.00,0.0381
1646.00,0.0381
1645.00,0.0381
1644.00,0.0382
1643.00,0.0383
1642.00,0.0384
1641.00,0.0384
1640.00,0.0385
1639.00,0.0385
1638.00,0.0385
1637.00,0.0386
1636.00,0.0388
1635.00,0.0388
1634.00,0.0389
1633.00,0.0391
1632.00,0.0392
1631.00,0.0392
1630.00,0.0393
1629.00,0.0394
1628.00,0.0395
1627.00,0.0396
1626.00,0.0397
1625.00,0.0398
1624.00,0.0400
1623.00,0.0402
1622.00,0.0404
1621.00,0.0404
1620.00,0.0404
1619.00,0.0405
1618.00,0.0408
1617.00,0.0411
1616.00,0.0412
1615.00,0.0412
1614.00,0.0413
1613.00,0.0413
1612.00,0.0414
1611.00,0.0416
1610.00,0.0418
1609.00,0.0419
1608.00,0.0420
1607.00,0.0421
1606.00,0.0422
1605.00,0.0422
1604.00,0.0422
1603.00,0.0424
1602.00,0.0425
1601.00,0.0425
1600.00,0.0426
1599.00,0.0427
1598.00,0.0428
1597.00,0.0428
1596.00,0.0429
1595.00,0.0430
1594.00,0.0431
1593.00,0.0432
1592.00,0.0432
1591.00,0.0433
1590.00,0.0434
1589.00,0.0435
1588.00,0.0435
1587.00,0.0436
1586.00,0.0437
1585.00,0.0437
1584.00,0.0438
1583.00,0.0439
1582.00,0.0439
1581.00,0.0440
1580.00,0.0440
1579.00,0.0440
1578.00,0.0441
1577.00,0.0442
1576.00,0.0444
1575.00,0.0445
1574.00,0.0445
1573.00,0.0444
1572.00,0.0443
1571.00,0.0443
1570.00,0.0445
1569.00,0.0446
1568.00,0.0447
1567.00,0.0447
1566.00,0.0447
1565.00,0.0447
1564.00,0.0447
1563.00,0.0446
1562.00,0.0443
1561.00,0.0437
1560.00,0.0439
1559.00,0.0449
1558.00,0.0452
1557.00,0.0452
1556.00,0.0453
1555.00,0.0452
1554.00,0.0452
1553.00,0.0451
1552.00,0.0450
1551.00,0.0448
1550.00,0.0448
1549.00,0.0448
1548.00,0.0448
1547.00,0.0447
1546.00,0.0447
1545.00,0.0447
1544.00,0.0448
1543.00,0.0447
1542.00,0.0447
1541.00,0.0449
1540.00,0.0447
1539.00,0.0445
1538.00,0.0444
1537.00,0.0445
1536.00,0.0443
1535.00,0.0442
1534.00,0.0442
1533.00,0.0443
1532.00,0.0442
1531.00,0.0442
1530.00,0.0441
1529.00,0.0441
1528.00,0.0441
1527.00,0.0442
1526.00,0.0443
1525.00,0.0443
1524.00,0.0442
1523.00,0.0441
1522.00,0.0441
1521.00,0.0441
1520.00,0.0439
1519.00,0.0438
1518.00,0.0436
1517.00,0.0436
1516.00,0.0436
1515.00,0.0437
1514.00,0.0437
1513.00,0.0438
1512.00,0.0438
1511.00,0.0437
1510.00,0.0435
1509.00,0.0434
1508.00,0.0436
1507.00,0.0436
1506.00,0.0432
1505.00,0.0433
1504.00,0.0434
1503.00,0.0433
1502.00,0.0432
1501.00,0.0430
1500.00,0.0429
1499.00,0.0428
1498.00,0.0428
1497.00,0.0429
1496.00,0.0430
1495.00,0.0430
1494.00,0.0430
1493.00,0.0431
1492.00,0.0431
1491.00,0.0432
1490.00,0.0432
1489.00,0.0430
1488.00,0.0428
1487.00,0.0426
1486.00,0.0426
1485.00,0.0426
1484.00,0.0426
1483.00,0.0426
1482.00,0.0426
1481.00,0.0426
1480.00,0.0425
1479.00,0.0424
1478.00,0.0423
1477.00,0.0423
1476.00,0.0424
1475.00,0.0425
1474.00,0.0427
1473.00,0.0428
1472.00,0.0427
1471.00,0.0424
1470.00,0.0423
1469.00,0.0423
1468.00,0.0422
1467.00,0.0421
1466.00,0.0420
1465.00,0.0421
1464.00,0.0422
1463.00,0.0422
1462.00,0.0421
1461.00,0.0419
1460.00,0.0418
1459.00,0.0419
1458.00,0.0422
1457.00,0.0425
1456.00,0.0425
1455.00,0.0425
1454.00,0.0424
1453.00,0.0424
1452.00,0.0425
1451.00,0.0425
1450.00,0.0426
1449.00,0.0427
1448.00,0.0427
1447.00,0.0427
1446.00,0.0427
1445.00,0.0427
1444.00,0.0428
1443.00,0.0428
1442.00,0.0428
1441.00,0.0428
1440.00,0.0429
1439.00,0.0428
1438.00,0.0429
1437.00,0.0430
1436.00,0.0432
1435.00,0.0432
1434.00,0.0432
1433.00,0.0431
1432.00,0.0431
1431.00,0.0432
1430.00,0.0432
1429.00,0.0432
1428.00,0.0432
1427.00,0.0432
1426.00,0.0432
1425.00,0.0432
1424.00,0.0432
1423.00,0.0433
1422.00,0.0432
1421.00,0.0432
1420.00,0.0432
1419.00,0.0433
1418.00,0.0433
1417.00,0.0433
1416.00,0.0434
1415.00,0.0434
1414.00,0.0434
1413.00,0.0434
1412.00,0.0434
1411.00,0.0434
1410.00,0.0433
1409.00,0.0432
1408.00,0.0432
1407.00,0.0432
1406.00,0.0431
1405.00,0.0432
1404.00,0.0432
1403.00,0.0433
1402.00,0.0433
1401.00,0.0433
1400.00,0.0433
1399.00,0.0434
1398.00,0.0435
1397.00,0.0435
1396.00,0.0435
1395.00,0.0435
1394.00,0.0435
1393.00,0.0435
1392.00,0.0436
1391.00,0.0436
1390.00,0.0436
1389.00,0.0436
1388.00,0.0437
1387.00,0.0438
1386.00,0.0438
1385.00,0.0438
1384.00,0.0438
1383.00,0.0438
1382.00,0.0438
1381.00,0.0438
1380.00,0.0439
1379.00,0.0439
1378.00,0.0439
1377.00,0.0439
1376.00,0.0439
1375.00,0.0440
1374.00,0.0441
1373.00,0.0442
1372.00,0.0443
1371.00,0.0444
1370.00,0.0444
1369.00,0.0444
1368.00,0.0444
1367.00,0.0444
1366.00,0.0444
1365.00,0.0444
1364.00,0.0443
1363.00,0.0444
1362.00,0.0444
1361.00,0.0444
1360.00,0.0444
1359.00,0.0445
1358.00,0.0445
1357.00,0.0445
1356.00,0.0445
1355.00,0.0446
1354.00,0.0446
1353.00,0.0445
1352.00,0.0445
1351.00,0.0446
1350.00,0.0446
1349.00,0.0446
1348.00,0.0446
1347.00,0.0447
1346.00,0.0447
1345.00,0.0447
1344.00,0.0446
1343.00,0.0447
1342.00,0.0447
1341.00,0.0447
1340.00,0.0447
1339.00,0.0447
1338.00,0.0447
1337.00,0.0447
1336.00,0.0447
1335.00,0.0447
1334.00,0.0448
1333.00,0.0448
1332.00,0.0448
1331.00,0.0448
1330.00,0.0448
1329.00,0.0448
1328.00,0.0448
1327.00,0.0448
1326.00,0.0448
1325.00,0.0448
1324.00,0.0448
1323.00,0.0449
1322.00,0.0449
1321.00,0.0450
1320.00,0.0450
1319.00,0.0450
1318.00,0.0450
1317.00,0.0450
1316.00,0.0451
1315.00,0.0451
1314.00,0.0451
1313.00,0.0451
1312.00,0.0452
1311.00,0.0452
1310.00,0.0452
1309.00,0.0452
1308.00,0.0452
1307.00,0.0452
1306.00,0.0452
1305.00,0.0452
1304.00,0.0452
1303.00,0.0452
1302.00,0.0452
1301.00,0.0453
1300.00,0.0453
1299.00,0.0453
1298.00,0.0453
1297.00,0.0454
1296.00,0.0454
1295.00,0.0454
1294.00,0.0454
1293.00,0.0454
1292.00,0.0454
1291.00,0.0455
1290.00,0.0455
1289.00,0.0455
1288.00,0.0455
1287.00,0.0455
1286.00,0.0455
1285.00,0.0455
1284.00,0.0455
1283.00,0.0455
1282.00,0.0455
1281.00,0.0456
1280.00,0.0456
1279.00,0.0457
1278.00,0.0457
1277.00,0.0457
1276.00,0.0458
1275.00,0.0458
1274.00,0.0458
1273.00,0.0458
1272.00,0.0458
1271.00,0.0459
1270.00,0.0459
1269.00,0.0459
1268.00,0.0459
1267.00,0.0459
1266.00,0.0459
1265.00,0.0459
1264.00,0.0460
1263.00,0.0460
1262.00,0.0460
1261.00,0.0460
1260.00,0.0461
1259.00,0.0461
1258.00,0.0462
1257.00,0.0462
1256.00,0.0462
1255.00,0.0462
1254.00,0.0462
1253.00,0.0462
1252.00,0.0462
1251.00,0.0462
1250.00,0.0462
1249.00,0.0462
1248.00,0.0463
1247.00,0.0463
1246.00,0.0464
1245.00,0.0464
1244.00,0.0464
1243.00,0.0464
1242.00,0.0465
1241.00,0.0465
1240.00,0.0465
1239.00,0.0465
1238.00,0.0466
1237.00,0.0466
1236.00,0.0466
1235.00,0.0466
1234.00,0.0466
1233.00,0.0466
1232.00,0.0466
1231.00,0.0466
1230.00,0.0466
1229.00,0.0467
1228.00,0.0467
1227.00,0.0468
1226.00,0.0468
1225.00,0.0468
1224.00,0.0468
1223.00,0.0468
1222.00,0.0468
1221.00,0.0468
1220.00,0.0467
1219.00,0.0467
1218.00,0.0467
1217.00,0.0466
1216.00,0.0466
1215.00,0.0467
1214.00,0.0467
1213.00,0.0467
1212.00,0.0468
1211.00,0.0468
1210.00,0.0468
1209.00,0.0467
1208.00,0.0467
1207.00,0.0467
1206.00,0.0468
1205.00,0.0468
1204.00,0.0468
1203.00,0.0469
1202.00,0.0468
1201.00,0.0468
1200.00,0.0467
1199.00,0.0467
1198.00,0.0466
1197.00,0.0466
1196.00,0.0466
1195.00,0.0466
1194.00,0.0466
1193.00,0.0465
1192.00,0.0465
1191.00,0.0465
1190.00,0.0464
1189.00,0.0464
1188.00,0.0463
1187.00,0.0463
1186.00,0.0463
1185.00,0.0463
1184.00,0.0463
1183.00,0.0463
1182.00,0.0463
1181.00,0.0463
1180.00,0.0463
1179.00,0.0463
1178.00,0.0463
1177.00,0.0463
1176.00,0.0462
1175.00,0.0462
1174.00,0.0461
1173.00,0.0461
1172.00,0.0461
1171.00,0.0461
1170.00,0.0461
1169.00,0.0461
1168.00,0.0461
1167.00,0.0461
1166.00,0.0460
1165.00,0.0460
1164.00,0.0460
1163.00,0.0460
1162.00,0.0459
1161.00,0.0459
1160.00,0.0459
1159.00,0.0459
1158.00,0.0458
1157.00,0.0458
1156.00,0.0458
1155.00,0.0458
1154.00,0.0458
1153.00,0.0458
1152.00,0.0458
1151.00,0.0458
1150.00,0.0458
1149.00,0.0457
1148.00,0.0457
1147.00,0.0458
1146.00,0.0458
1145.00,0.0459
1144.00,0.0459
1143.00,0.0459
1142.00,0.0459
1141.00,0.0458
1140.00,0.0458
1139.00,0.0458
1138.00,0.0458
1137.00,0.0459
1136.00,0.0459
1135.00,0.0459
1134.00,0.0459
1133.00,0.0458
1132.00,0.0458
1131.00,0.0458
1130.00,0.0457
1129.00,0.0457
1128.00,0.0458
1127.00,0.0458
1126.00,0.0459
1125.00,0.0460
1124.00,0.0461
1123.00,0.0462
1122.00,0.0463
1121.00,0.0463
1120.00,0.0464
1119.00,0.0465
1118.00,0.0466
1117.00,0.0467
1116.00,0.0468
1115.00,0.0468
1114.00,0.0467
1113.00,0.0466
1112.00,0.0466
1111.00,0.0466
1110.00,0.0467
1109.00,0.0468
1108.00,0.0470
1107.00,0.0470
1106.00,0.0470
1105.00,0.0470
1104.00,0.0469
1103.00,0.0469
1102.00,0.0469
1101.00,0.0470
1100.00,0.0471
1099.00,0.0471
1098.00,0.0471
1097.00,0.0471
1096.00,0.0471
1095.00,0.0471
1094.00,0.0471
1093.00,0.0471
1092.00,0.0471
1091.00,0.0472
1090.00,0.0472
1089.00,0.0472
1088.00,0.0472
1087.00,0.0472
1086.00,0.0471
1085.00,0.0471
1084.00,0.0472
1083.00,0.0472
1082.00,0.0472
1081.00,0.0472
1080.00,0.0472
1079.00,0.0473
1078.00,0.0473
1077.00,0.0473
1076.00,0.0474
1075.00,0.0475
1074.00,0.0476
1073.00,0.0476
1072.00,0.0476
1071.00,0.0476
1070.00,0.0476
1069.00,0.0477
1068.00,0.0479
1067.00,0.0480
1066.00,0.0481
1065.00,0.0481
1064.00,0.0481
1063.00,0.0482
1062.00,0.0483
1061.00,0.0483
1060.00,0.0484
1059.00,0.0485
1058.00,0.0485
1057.00,0.0485
1056.00,0.0486
1055.00,0.0486
1054.00,0.0487
1053.00,0.0487
1052.00,0.0488
1051.00,0.0489
1050.00,0.0490
1049.00,0.0492
1048.00,0.0493
1047.00,0.0494
1046.00,0.0494
1045.00,0.0493
1044.00,0.0492
1043.00,0.0492
1042.00,0.0492
1041.00,0.0492
1040.00,0.0494
1039.00,0.0495
1038.00,0.0496
1037.00,0.0496
1036.00,0.0496
1035.00,0.0497
1034.00,0.0497
1033.00,0.0497
1032.00,0.0497
1031.00,0.0497
1030.00,0.0496
1029.00,0.0496
1028.00,0.0495
1027.00,0.0495
1026.00,0.0494
1025.00,0.0494
1024.00,0.0493
1023.00,0.0492
1022.00,0.0492
1021.00,0.0492
1020.00,0.0492
1019.00,0.0492
1018.00,0.0491
1017.00,0.0490
1016.00,0.0490
1015.00,0.0489
1014.00,0.0490
1013.00,0.0490
1012.00,0.0491
1011.00,0.0492
1010.00,0.0491
1009.00,0.0491
1008.00,0.0491
1007.00,0.0490
1006.00,0.0490
1005.00,0.0489
1004.00,0.0488
1003.00,0.0488
1002.00,0.0488
1001.00,0.0488
1000.00,0.0488
999.00,0.0488
998.00,0.0487
997.00,0.0487
996.00,0.0486
995.00,0.0485
994.00,0.0484
993.00,0.0483
992.00,0.0483
991.00,0.0482
990.00,0.0481
989.00,0.0480
988.00,0.0478
987.00,0.0478
986.00,0.0477
985.00,0.0478
984.00,0.0478
983.00,0.0478
982.00,0.0478
981.00,0.0478
980.00,0.0477
979.00,0.0477
978.00,0.0476
977.00,0.0475
976.00,0.0474
975.00,0.0473
974.00,0.0472
973.00,0.0471
972.00,0.0470
971.00,0.0469
970.00,0.0468
969.00,0.0467
968.00,0.0467
967.00,0.0467
966.00,0.0467
965.00,0.0468
964.00,0.0468
963.00,0.0468
962.00,0.0467
961.00,0.0467
960.00,0.0467
959.00,0.0466
958.00,0.0465
957.00,0.0465
956.00,0.0464
955.00,0.0465
954.00,0.0465
953.00,0.0465
952.00,0.0464
951.00,0.0463
950.00,0.0463
949.00,0.0463
948.00,0.0464
947.00,0.0464
946.00,0.0465
945.00,0.0464
944.00,0.0464
943.00,0.0464
942.00,0.0464
941.00,0.0465
940.00,0.0466
939.00,0.0467
938.00,0.0468
937.00,0.0468
936.00,0.0468
935.00,0.0467
934.00,0.0468
933.00,0.0468
932.00,0.0468
931.00,0.0468
930.00,0.0468
929.00,0.0467
928.00,0.0467
927.00,0.0468
926.00,0.0468
925.00,0.0468
924.00,0.0468
923.00,0.0468
922.00,0.0469
921.00,0.0469
920.00,0.0469
919.00,0.0470
918.00,0.0471
917.00,0.0473
916.00,0.0474
915.00,0.0475
914.00,0.0474
913.00,0.0474
912.00,0.0474
911.00,0.0474
910.00,0.0473
909.00,0.0472
908.00,0.0471
907.00,0.0471
906.00,0.0472
905.00,0.0473
904.00,0.0474
903.00,0.0473
902.00,0.0473
901.00,0.0472
900.00,0.0472
899.00,0.0472
898.00,0.0472
897.00,0.0472
896.00,0.0471
895.00,0.0471
894.00,0.0471
893.00,0.0470
892.00,0.0469
891.00,0.0469
890.00,0.0469
889.00,0.0469
888.00,0.0469
887.00,0.0469
886.00,0.0468
885.00,0.0468
884.00,0.0467
883.00,0.0466
882.00,0.0466
881.00,0.0466
880.00,0.0467
879.00,0.0468
878.00,0.0468
877.00,0.0467
876.00,0.0467
875.00,0.0467
874.00,0.0467
873.00,0.0467
872.00,0.0468
871.00,0.0468
870.00,0.0469
869.00,0.0469
868.00,0.0469
867.00,0.0468
866.00,0.0467
865.00,0.0465
864.00,0.0465
863.00,0.0466
862.00,0.0467
861.00,0.0468
860.00,0.0468
859.00,0.0468
858.00,0.0467
857.00,0.0466
856.00,0.0465
855.00,0.0464
854.00,0.0463
853.00,0.0462
852.00,0.0463
851.00,0.0464
850.00,0.0465
849.00,0.0465
848.00,0.0464
847.00,0.0463
846.00,0.0463
845.00,0.0463
844.00,0.0464
843.00,0.0464
842.00,0.0464
841.00,0.0464
840.00,0.0465
839.00,0.0467
838.00,0.0468
837.00,0.0467
836.00,0.0466
835.00,0.0463
834.00,0.0461
833.00,0.0460
832.00,0.0461
831.00,0.0462
830.00,0.0465
829.00,0.0466
828.00,0.0467
827.00,0.0467
826.00,0.0467
825.00,0.0469
824.00,0.0471
823.00,0.0473
822.00,0.0474
821.00,0.0474
820.00,0.0472
819.00,0.0471
818.00,0.0470
817.00,0.0470
816.00,0.0471
815.00,0.0471
814.00,0.0471
813.00,0.0471
812.00,0.0471
811.00,0.0470
810.00,0.0468
809.00,0.0468
808.00,0.0468
807.00,0.0470
806.00,0.0471
805.00,0.0472
804.00,0.0473
803.00,0.0474
802.00,0.0474
801.00,0.0474
800.00,0.0475
799.00,0.0476
798.00,0.0477
797.00,0.0479
796.00,0.0480
795.00,0.0481
794.00,0.0481
793.00,0.0480
792.00,0.0479
791.00,0.0477
790.00,0.0477
789.00,0.0478
788.00,0.0478
787.00,0.0478
786.00,0.0476
785.00,0.0474
784.00,0.0474
783.00,0.0474
782.00,0.0477
781.00,0.0480
780.00,0.0482
779.00,0.0483
778.00,0.0482
777.00,0.0481
776.00,0.0480
775.00,0.0481
774.00,0.0482
773.00,0.0483
772.00,0.0484
771.00,0.0484
770.00,0.0484
769.00,0.0484
768.00,0.0483
767.00,0.0483
766.00,0.0484
765.00,0.0485
764.00,0.0485
763.00,0.0484
762.00,0.0483
761.00,0.0483
760.00,0.0485
759.00,0.0487
758.00,0.0489
757.00,0.0490
756.00,0.0490
755.00,0.0489
754.00,0.0487
753.00,0.0486
752.00,0.0486
751.00,0.0487
750.00,0.0488
749.00,0.0489
748.00,0.0489
747.00,0.0490
746.00,0.0489
745.00,0.0488
744.00,0.0487
743.00,0.0486
742.00,0.0487
741.00,0.0487
740.00,0.0487
739.00,0.0488
738.00,0.0489
737.00,0.0490
736.00,0.0491
735.00,0.0491
734.00,0.0490
733.00,0.0489
732.00,0.0489
731.00,0.0491
730.00,0.0493
729.00,0.0495
728.00,0.0496
727.00,0.0497
726.00,0.0496
725.00,0.0494
724.00,0.0492
723.00,0.0491
722.00,0.0491
721.00,0.0492
720.00,0.0492
719.00,0.0492
718.00,0.0492
717.00,0.0493
716.00,0.0494
715.00,0.0496
714.00,0.0496
713.00,0.0497
712.00,0.0497
711.00,0.0497
710.00,0.0497
709.00,0.0497
708.00,0.0498
707.00,0.0498
706.00,0.0499
705.00,0.0499
704.00,0.0499
703.00,0.0500
702.00,0.0502
701.00,0.0503
700.00,0.0504
699.00,0.0504
698.00,0.0502
697.00,0.0500
696.00,0.0499
695.00,0.0500
694.00,0.0501
693.00,0.0501
692.00,0.0499
691.00,0.0497
690.00,0.0497
689.00,0.0499
688.00,0.0501
687.00,0.0504
686.00,0.0508
685.00,0.0512
684.00,0.0514
683.00,0.0514
682.00,0.0511
681.00,0.0509
680.00,0.0507
679.00,0.0507
678.00,0.0506
677.00,0.0506
676.00,0.0505
675.00,0.0505
674.00,0.0507
673.00,0.0508
672.00,0.0510
671.00,0.0514
670.00,0.0522
669.00,0.0533
668.00,0.0543
667.00,0.0541
666.00,0.0528
665.00,0.0517
664.00,0.0511
663.00,0.0508
662.00,0.0506
661.00,0.0504
660.00,0.0505
659.00,0.0507
658.00,0.0510
657.00,0.0513
656.00,0.0514
655.00,0.0515
654.00,0.0517
653.00,0.0516
652.00,0.0514
651.00,0.0512
650.00,0.0509
