Created as New Dataset,Monday, April 03 2023
cm-1,A
4000.00,0.0433
3999.00,0.0433
3998.00,0.0433
3997.00,0.0432
3996.00,0.0432
3995.00,0.0432
3994.00,0.0432
3993.00,0.0432
3992.00,0.0432
3991.00,0.0432
3990.00,0.0432
3989.00,0.0432
3988.00,0.0432
3987.00,0.0432
3986.00,0.0432
3985.00,0.0432
3984.00,0.0431
3983.00,0.0431
3982.00,0.0430
3981.00,0.0430
3980.00,0.0430
3979.00,0.0431
3978.00,0.0431
3977.00,0.0431
3976.00,0.0431
3975.00,0.0431
3974.00,0.0430
3973.00,0.0430
3972.00,0.0430
3971.00,0.0429
3970.00,0.0429
3969.00,0.0429
3968.00,0.0429
3967.00,0.0430
3966.00,0.0430
3965.00,0.0430
3964.00,0.0430
3963.00,0.0430
3962.00,0.0430
3961.00,0.0430
3960.00,0.0430
3959.00,0.0430
3958.00,0.0430
3957.00,0.0430
3956.00,0.0430
3955.00,0.0429
3954.00,0.0429
3953.00,0.0429
3952.00,0.0429
3951.00,0.0429
3950.00,0.0429
3949.00,0.0429
3948.00,0.0429
3947.00,0.0429
3946.00,0.0429
3945.00,0.0429
3944.00,0.0428
3943.00,0.0426
3942.00,0.0426
3941.00,0.0427
3940.00,0.0427
3939.00,0.0428
3938.00,0.0428
3937.00,0.0428
3936.00,0.0428
3935.00,0.0429
3934.00,0.0429
3933.00,0.0429
3932.00,0.0429
3931.00,0.0428
3930.00,0.0427
3929.00,0.0427
3928.00,0.0427
3927.00,0.0427
3926.00,0.0426
3925.00,0.0425
3924.00,0.0425
3923.00,0.0425
3922.00,0.0426
3921.00,0.0426
3920.00,0.0426
3919.00,0.0426
3918.00,0.0426
3917.00,0.0426
3916.00,0.0426
3915.00,0.0426
3914.00,0.0426
3913.00,0.0426
3912.00,0.0426
3911.00,0.0426
3910.00,0.0426
3909.00,0.0426
3908.00,0.0426
3907.00,0.0425
3906.00,0.0425
3905.00,0.0425
3904.00,0.0426
3903.00,0.0427
3902.00,0.0428
3901.00,0.0427
3900.00,0.0425
3899.00,0.0424
3898.00,0.0424
3897.00,0.0425
3896.00,0.0426
3895.00,0.0427
3894.00,0.0426
3893.00,0.0425
3892.00,0.0424
3891.00,0.0423
3890.00,0.0424
3889.00,0.0425
3888.00,0.0426
3887.00,0.0426
3886.00,0.0425
3885.00,0.0425
3884.00,0.0426
3883.00,0.0426
3882.00,0.0424
3881.00,0.0421
3880.00,0.0420
3879.00,0.0421
3878.00,0.0424
3877.00,0.0425
3876.00,0.0424
3875.00,0.0423
3874.00,0.0422
3873.00,0.0424
3872.00,0.0425
3871.00,0.0424
3870.00,0.0423
3869.00,0.0423
3868.00,0.0426
3867.00,0.0428
3866.00,0.0427
3865.00,0.0425
3864.00,0.0424
3863.00,0.0423
3862.00,0.0423
3861.00,0.0424
3860.00,0.0424
3859.00,0.0423
3858.00,0.0422
3857.00,0.0419
3856.00,0.0419
3855.00,0.0423
3854.00,0.0426
3853.00,0.0424
3852.00,0.0422
3851.00,0.0423
3850.00,0.0424
3849.00,0.0424
3848.00,0.0424
3847.00,0.0423
3846.00,0.0423
3845.00,0.0422
3844.00,0.0422
3843.00,0.0422
3842.00,0.0423
3841.00,0.0424
3840.00,0.0424
3839.00,0.0424
3838.00,0.0423
3837.00,0.0422
3836.00,0.0421
3835.00,0.0421
3834.00,0.0421
3833.00,0.0421
3832.00,0.0420
3831.00,0.0421
3830.00,0.0422
3829.00,0.0423
3828.00,0.0422
3827.00,0.0421
3826.00,0.0420
3825.00,0.0421
3824.00,0.0422
3823.00,0.0423
3822.00,0.0423
3821.00,0.0422
3820.00,0.0422
3819.00,0.0424
3818.00,0.0425
3817.00,0.0423
3816.00,0.0420
3815.00,0.0419
3814.00,0.0419
3813.00,0.0420
3812.00,0.0419
3811.00,0.0418
3810.00,0.0418
3809.00,0.0419
3808.00,0.0420
3807.00,0.0420
3806.00,0.0421
3805.00,0.0423
3804.00,0.0425
3803.00,0.0424
3802.00,0.0421
3801.00,0.0419
3800.00,0.0419
3799.00,0.0420
3798.00,0.0419
3797.00,0.0417
3796.00,0.0416
3795.00,0.0417
3794.00,0.0418
3793.00,0.0418
3792.00,0.0417
3791.00,0.0416
3790.00,0.0417
3789.00,0.0417
3788.00,0.0418
3787.00,0.0418
3786.00,0.0418
3785.00,0.0417
3784.00,0.0416
3783.00,0.0417
3782.00,0.0417
3781.00,0.0416
3780.00,0.0415
3779.00,0.0414
3778.00,0.0414
3777.00,0.0415
3776.00,0.0415
3775.00,0.0415
3774.00,0.0415
3773.00,0.0416
3772.00,0.0416
3771.00,0.0417
3770.00,0.0416
3769.00,0.0416
3768.00,0.0417
3767.00,0.0417
3766.00,0.0416
3765.00,0.0416
3764.00,0.0416
3763.00,0.0418
3762.00,0.0418
3761.00,0.0417
3760.00,0.0417
3759.00,0.0416
3758.00,0.0415
3757.00,0.0415
3756.00,0.0416
3755.00,0.0416
3754.00,0.0417
3753.00,0.0419
3752.00,0.0422
3751.00,0.0424
3750.00,0.0424
3749.00,0.0423
3748.00,0.0423
3747.00,0.0421
3746.00,0.0418
3745.00,0.0415
3744.00,0.0414
3743.00,0.0416
3742.00,0.0419
3741.00,0.0420
3740.00,0.0419
3739.00,0.0418
3738.00,0.0418
3737.00,0.0419
3736.00,0.0419
3735.00,0.0417
3734.00,0.0416
3733.00,0.0414
3732.00,0.0413
3731.00,0.0414
3730.00,0.0415
3729.00,0.0416
3728.00,0.0416
3727.00,0.0415
3726.00,0.0415
3725.00,0.0415
3724.00,0.0415
3723.00,0.0414
3722.00,0.0413
3721.00,0.0413
3720.00,0.0413
3719.00,0.0413
3718.00,0.0413
3717.00,0.0414
3716.00,0.0415
3715.00,0.0415
3714.00,0.0417
3713.00,0.0419
3712.00,0.0421
3711.00,0.0422
3710.00,0.0422
3709.00,0.0424
3708.00,0.0426
3707.00,0.0427
3706.00,0.0429
3705.00,0.0431
3704.00,0.0432
3703.00,0.0433
3702.00,0.0435
3701.00,0.0436
3700.00,0.0438
3699.00,0.0440
3698.00,0.0442
3697.00,0.0442
3696.00,0.0443
3695.00,0.0443
3694.00,0.0443
3693.00,0.0442
3692.00,0.0442
3691.00,0.0442
3690.00,0.0442
3689.00,0.0440
3688.00,0.0438
3687.00,0.0438
3686.00,0.0438
3685.00,0.0438
3684.00,0.0436
3683.00,0.0434
3682.00,0.0433
3681.00,0.0432
3680.00,0.0430
3679.00,0.0429
3678.00,0.0430
3677.00,0.0431
3676.00,0.0430
3675.00,0.0429
3674.00,0.0431
3673.00,0.0435
3672.00,0.0436
3671.00,0.0434
3670.00,0.0431
3669.00,0.0429
3668.00,0.0430
3667.00,0.0431
3666.00,0.0432
3665.00,0.0432
3664.00,0.0433
3663.00,0.0434
3662.00,0.0434
3661.00,0.0435
3660.00,0.0435
3659.00,0.0436
3658.00,0.0438
3657.00,0.0440
3656.00,0.0441
3655.00,0.0442
3654.00,0.0443
3653.00,0.0442
3652.00,0.0442
3651.00,0.0444
3650.00,0.0448
3649.00,0.0448
3648.00,0.0445
3647.00,0.0443
3646.00,0.0443
3645.00,0.0445
3644.00,0.0446
3643.00,0.0446
3642.00,0.0445
3641.00,0.0445
3640.00,0.0445
3639.00,0.0445
3638.00,0.0444
3637.00,0.0445
3636.00,0.0445
3635.00,0.0445
3634.00,0.0445
3633.00,0.0445
3632.00,0.0446
3631.00,0.0447
3630.00,0.0450
3629.00,0.0453
3628.00,0.0455
3627.00,0.0457
3626.00,0.0460
3625.00,0.0461
3624.00,0.0462
3623.00,0.0463
3622.00,0.0465
3621.00,0.0467
3620.00,0.0468
3619.00,0.0467
3618.00,0.0466
3617.00,0.0465
3616.00,0.0464
3615.00,0.0463
3614.00,0.0461
3613.00,0.0460
3612.00,0.0461
3611.00,0.0463
3610.00,0.0465
3609.00,0.0465
3608.00,0.0465
3607.00,0.0464
3606.00,0.0463
3605.00,0.0463
3604.00,0.0463
3603.00,0.0464
3602.00,0.0464
3601.00,0.0463
3600.00,0.0463
3599.00,0.0463
3598.00,0.0463
3597.00,0.0462
3596.00,0.0463
3595.00,0.0464
3594.00,0.0465
3593.00,0.0466
3592.00,0.0466
3591.00,0.0467
3590.00,0.0467
3589.00,0.0467
3588.00,0.0468
3587.00,0.0467
3586.00,0.0467
3585.00,0.0468
3584.00,0.0469
3583.00,0.0470
3582.00,0.0470
3581.00,0.0471
3580.00,0.0471
3579.00,0.0471
3578.00,0.0472
3577.00,0.0472
3576.00,0.0472
3575.00,0.0473
3574.00,0.0473
3573.00,0.0474
3572.00,0.0474
3571.00,0.0473
3570.00,0.0473
3569.00,0.0474
3568.00,0.0476
3567.00,0.0478
3566.00,0.0479
3565.00,0.0480
3564.00,0.0480
3563.00,0.0480
3562.00,0.0480
3561.00,0.0479
3560.00,0.0479
3559.00,0.0480
3558.00,0.0481
3557.00,0.0481
3556.00,0.0482
3555.00,0.0483
3554.00,0.0484
3553.00,0.0484
3552.00,0.0484
3551.00,0.0485
3550.00,0.0485
3549.00,0.0486
3548.00,0.0487
3547.00,0.0488
3546.00,0.0489
3545.00,0.0490
3544.00,0.0490
3543.00,0.0489
3542.00,0.0489
3541.00,0.0489
3540.00,0.0489
3539.00,0.0489
3538.00,0.0490
3537.00,0.0490
3536.00,0.0491
3535.00,0.0492
3534.00,0.0493
3533.00,0.0493
3532.00,0.0494
3531.00,0.0495
3530.00,0.0495
3529.00,0.0496
3528.00,0.0497
3527.00,0.0497
3526.00,0.0497
3525.00,0.0498
3524.00,0.0498
3523.00,0.0498
3522.00,0.0498
3521.00,0.0499
3520.00,0.0499
3519.00,0.0499
3518.00,0.0500
3517.00,0.0500
3516.00,0.0501
3515.00,0.0502
3514.00,0.0502
3513.00,0.0501
3512.00,0.0502
3511.00,0.0502
3510.00,0.0503
3509.00,0.0504
3508.00,0.0505
3507.00,0.0505
3506.00,0.0506
3505.00,0.0506
3504.00,0.0507
3503.00,0.0507
3502.00,0.0508
3501.00,0.0508
3500.00,0.0509
3499.00,0.0509
3498.00,0.0509
3497.00,0.0510
3496.00,0.0510
3495.00,0.0511
3494.00,0.0511
3493.00,0.0511
3492.00,0.0512
3491.00,0.0512
3490.00,0.0513
3489.00,0.0513
3488.00,0.0513
3487.00,0.0513
3486.00,0.0514
3485.00,0.0514
3484.00,0.0515
3483.00,0.0516
3482.00,0.0516
3481.00,0.0517
3480.00,0.0517
3479.00,0.0517
3478.00,0.0518
3477.00,0.0518
3476.00,0.0519
3475.00,0.0519
3474.00,0.0520
3473.00,0.0520
3472.00,0.0520
3471.00,0.0520
3470.00,0.0520
3469.00,0.0521
3468.00,0.0521
3467.00,0.0522
3466.00,0.0522
3465.00,0.0523
3464.00,0.0523
3463.00,0.0524
3462.00,0.0524
3461.00,0.0525
3460.00,0.0525
3459.00,0.0525
3458.00,0.0525
3457.00,0.0525
3456.00,0.0526
3455.00,0.0526
3454.00,0.0527
3453.00,0.0527
3452.00,0.0528
3451.00,0.0529
3450.00,0.0530
3449.00,0.0531
3448.00,0.0531
3447.00,0.0531
3446.00,0.0531
3445.00,0.0531
3444.00,0.0532
3443.00,0.0532
3442.00,0.0532
3441.00,0.0533
3440.00,0.0533
3439.00,0.0533
3438.00,0.0533
3437.00,0.0534
3436.00,0.0534
3435.00,0.0535
3434.00,0.0535
3433.00,0.0535
3432.00,0.0536
3431.00,0.0536
3430.00,0.0536
3429.00,0.0536
3428.00,0.0536
3427.00,0.0537
3426.00,0.0537
3425.00,0.0538
3424.00,0.0538
3423.00,0.0539
3422.00,0.0539
3421.00,0.0539
3420.00,0.0539
3419.00,0.0539
3418.00,0.0539
3417.00,0.0539
3416.00,0.0539
3415.00,0.0540
3414.00,0.0541
3413.00,0.0541
3412.00,0.0542
3411.00,0.0542
3410.00,0.0542
3409.00,0.0542
3408.00,0.0542
3407.00,0.0542
3406.00,0.0543
3405.00,0.0543
3404.00,0.0543
3403.00,0.0544
3402.00,0.0545
3401.00,0.0545
3400.00,0.0545
3399.00,0.0545
3398.00,0.0545
3397.00,0.0545
3396.00,0.0545
3395.00,0.0546
3394.00,0.0546
3393.00,0.0547
3392.00,0.0547
3391.00,0.0548
3390.00,0.0548
3389.00,0.0548
3388.00,0.0547
3387.00,0.0547
3386.00,0.0548
3385.00,0.0548
3384.00,0.0548
3383.00,0.0548
3382.00,0.0548
3381.00,0.0548
3380.00,0.0549
3379.00,0.0549
3378.00,0.0550
3377.00,0.0550
3376.00,0.0551
3375.00,0.0551
3374.00,0.0552
3373.00,0.0552
3372.00,0.0552
3371.00,0.0552
3370.00,0.0552
3369.00,0.0551
3368.00,0.0551
3367.00,0.0551
3366.00,0.0552
3365.00,0.0553
3364.00,0.0553
3363.00,0.0553
3362.00,0.0554
3361.00,0.0554
3360.00,0.0554
3359.00,0.0554
3358.00,0.0555
3357.00,0.0555
3356.00,0.0555
3355.00,0.0555
3354.00,0.0555
3353.00,0.0555
3352.00,0.0556
3351.00,0.0556
3350.00,0.0557
3349.00,0.0557
3348.00,0.0557
3347.00,0.0556
3346.00,0.0556
3345.00,0.0556
3344.00,0.0556
3343.00,0.0557
3342.00,0.0557
3341.00,0.0558
3340.00,0.0558
3339.00,0.0557
3338.00,0.0557
3337.00,0.0557
3336.00,0.0557
3335.00,0.0557
3334.00,0.0557
3333.00,0.0557
3332.00,0.0558
3331.00,0.0558
3330.00,0.0558
3329.00,0.0558
3328.00,0.0558
3327.00,0.0558
3326.00,0.0558
3325.00,0.0558
3324.00,0.0558
3323.00,0.0558
3322.00,0.0559
3321.00,0.0559
3320.00,0.0559
3319.00,0.0560
3318.00,0.0560
3317.00,0.0560
3316.00,0.0560
3315.00,0.0560
3314.00,0.0560
3313.00,0.0560
3312.00,0.0560
3311.00,0.0561
3310.00,0.0561
3309.00,0.0561
3308.00,0.0561
3307.00,0.0560
3306.00,0.0560
3305.00,0.0560
3304.00,0.0560
3303.00,0.0561
3302.00,0.0561
3301.00,0.0562
3300.00,0.0562
3299.00,0.0562
3298.00,0.0563
3297.00,0.0562
3296.00,0.0562
3295.00,0.0562
3294.00,0.0562
3293.00,0.0562
3292.00,0.0563
3291.00,0.0563
3290.00,0.0563
3289.00,0.0563
3288.00,0.0563
3287.00,0.0563
3286.00,0.0563
3285.00,0.0563
3284.00,0.0563
3283.00,0.0563
3282.00,0.0563
3281.00,0.0564
3280.00,0.0564
3279.00,0.0564
3278.00,0.0564
3277.00,0.0564
3276.00,0.0564
3275.00,0.0564
3274.00,0.0564
3273.00,0.0565
3272.00,0.0565
3271.00,0.0565
3270.00,0.0565
3269.00,0.0565
3268.00,0.0565
3267.00,0.0565
3266.00,0.0565
3265.00,0.0565
3264.00,0.0564
3263.00,0.0564
3262.00,0.0564
3261.00,0.0564
3260.00,0.0564
3259.00,0.0564
3258.00,0.0564
3257.00,0.0565
3256.00,0.0565
3255.00,0.0566
3254.00,0.0566
3253.00,0.0566
3252.00,0.0566
3251.00,0.0566
3250.00,0.0566
3249.00,0.0566
3248.00,0.0567
3247.00,0.0567
3246.00,0.0567
3245.00,0.0567
3244.00,0.0567
3243.00,0.0567
3242.00,0.0567
3241.00,0.0567
3240.00,0.0567
3239.00,0.0567
3238.00,0.0568
3237.00,0.0568
3236.00,0.0567
3235.00,0.0567
3234.00,0.0567
3233.00,0.0567
3232.00,0.0567
3231.00,0.0567
3230.00,0.0568
3229.00,0.0568
3228.00,0.0568
3227.00,0.0568
3226.00,0.0568
3225.00,0.0568
3224.00,0.0567
3223.00,0.0567
3222.00,0.0567
3221.00,0.0568
3220.00,0.0568
3219.00,0.0568
3218.00,0.0568
3217.00,0.0568
3216.00,0.0568
3215.00,0.0568
3214.00,0.0568
3213.00,0.0568
3212.00,0.0569
3211.00,0.0568
3210.00,0.0568
3209.00,0.0568
3208.00,0.0568
3207.00,0.0568
3206.00,0.0568
3205.00,0.0569
3204.00,0.0569
3203.00,0.0569
3202.00,0.0569
3201.00,0.0569
3200.00,0.0569
3199.00,0.0569
3198.00,0.0569
3197.00,0.0569
3196.00,0.0569
3195.00,0.0569
3194.00,0.0569
3193.00,0.0569
3192.00,0.0569
3191.00,0.0569
3190.00,0.0568
3189.00,0.0569
3188.00,0.0569
3187.00,0.0569
3186.00,0.0569
3185.00,0.0569
3184.00,0.0569
3183.00,0.0568
3182.00,0.0568
3181.00,0.0568
3180.00,0.0568
3179.00,0.0568
3178.00,0.0568
3177.00,0.0568
3176.00,0.0568
3175.00,0.0568
3174.00,0.0568
3173.00,0.0568
3172.00,0.0568
3171.00,0.0568
3170.00,0.0568
3169.00,0.0568
3168.00,0.0568
3167.00,0.0568
3166.00,0.0568
3165.00,0.0567
3164.00,0.0567
3163.00,0.0567
3162.00,0.0567
3161.00,0.0567
3160.00,0.0567
3159.00,0.0567
3158.00,0.0566
3157.00,0.0566
3156.00,0.0566
3155.00,0.0567
3154.00,0.0567
3153.00,0.0567
3152.00,0.0567
3151.00,0.0567
3150.00,0.0567
3149.00,0.0567
3148.00,0.0567
3147.00,0.0567
3146.00,0.0567
3145.00,0.0567
3144.00,0.0566
3143.00,0.0566
3142.00,0.0566
3141.00,0.0566
3140.00,0.0566
3139.00,0.0567
3138.00,0.0567
3137.00,0.0567
3136.00,0.0566
3135.00,0.0566
3134.00,0.0566
3133.00,0.0566
3132.00,0.0566
3131.00,0.0566
3130.00,0.0566
3129.00,0.0567
3128.00,0.0567
3127.00,0.0567
3126.00,0.0567
3125.00,0.0566
3124.00,0.0566
3123.00,0.0566
3122.00,0.0565
3121.00,0.0566
3120.00,0.0566
3119.00,0.0566
3118.00,0.0567
3117.00,0.0567
3116.00,0.0566
3115.00,0.0566
3114.00,0.0566
3113.00,0.0566
3112.00,0.0566
3111.00,0.0566
3110.00,0.0565
3109.00,0.0565
3108.00,0.0565
3107.00,0.0565
3106.00,0.0565
3105.00,0.0565
3104.00,0.0565
3103.00,0.0565
3102.00,0.0565
3101.00,0.0565
3100.00,0.0565
3099.00,0.0565
3098.00,0.0565
3097.00,0.0565
3096.00,0.0565
3095.00,0.0565
3094.00,0.0565
3093.00,0.0565
3092.00,0.0565
3091.00,0.0565
3090.00,0.0566
3089.00,0.0566
3088.00,0.0566
3087.00,0.0566
3086.00,0.0566
3085.00,0.0565
3084.00,0.0565
3083.00,0.0565
3082.00,0.0565
3081.00,0.0565
3080.00,0.0565
3079.00,0.0565
3078.00,0.0565
3077.00,0.0565
3076.00,0.0565
3075.00,0.0565
3074.00,0.0565
3073.00,0.0564
3072.00,0.0564
3071.00,0.0564
3070.00,0.0564
3069.00,0.0564
3068.00,0.0564
3067.00,0.0563
3066.00,0.0564
3065.00,0.0564
3064.00,0.0564
3063.00,0.0564
3062.00,0.0564
3061.00,0.0564
3060.00,0.0564
3059.00,0.0564
3058.00,0.0564
3057.00,0.0564
3056.00,0.0564
3055.00,0.0564
3054.00,0.0564
3053.00,0.0563
3052.00,0.0563
3051.00,0.0563
3050.00,0.0563
3049.00,0.0563
3048.00,0.0563
3047.00,0.0563
3046.00,0.0562
3045.00,0.0562
3044.00,0.0563
3043.00,0.0563
3042.00,0.0563
3041.00,0.0562
3040.00,0.0562
3039.00,0.0562
3038.00,0.0562
3037.00,0.0562
3036.00,0.0562
3035.00,0.0562
3034.00,0.0562
3033.00,0.0561
3032.00,0.0561
3031.00,0.0561
3030.00,0.0560
3029.00,0.0560
3028.00,0.0560
3027.00,0.0560
3026.00,0.0560
3025.00,0.0560
3024.00,0.0560
3023.00,0.0560
3022.00,0.0560
3021.00,0.0560
3020.00,0.0559
3019.00,0.0559
3018.00,0.0559
3017.00,0.0560
3016.00,0.0560
3015.00,0.0561
3014.00,0.0561
3013.00,0.0561
3012.00,0.0561
3011.00,0.0560
3010.00,0.0560
3009.00,0.0560
3008.00,0.0560
3007.00,0.0560
3006.00,0.0560
3005.00,0.0561
3004.00,0.0561
3003.00,0.0561
3002.00,0.0561
3001.00,0.0561
3000.00,0.0562
2999.00,0.0561
2998.00,0.0561
2997.00,0.0561
2996.00,0.0561
2995.00,0.0561
2994.00,0.0562
2993.00,0.0562
2992.00,0.0562
2991.00,0.0562
2990.00,0.0562
2989.00,0.0562
2988.00,0.0562
2987.00,0.0562
2986.00,0.0563
2985.00,0.0564
2984.00,0.0564
2983.00,0.0565
2982.00,0.0565
2981.00,0.0564
2980.00,0.0564
2979.00,0.0564
2978.00,0.0563
2977.00,0.0563
2976.00,0.0562
2975.00,0.0562
2974.00,0.0562
2973.00,0.0562
2972.00,0.0561
2971.00,0.0561
2970.00,0.0560
2969.00,0.0559
2968.00,0.0559
2967.00,0.0558
2966.00,0.0558
2965.00,0.0557
2964.00,0.0556
2963.00,0.0556
2962.00,0.0555
2961.00,0.0554
2960.00,0.0553
2959.00,0.0553
2958.00,0.0553
2957.00,0.0554
2956.00,0.0554
2955.00,0.0554
2954.00,0.0553
2953.00,0.0553
2952.00,0.0553
2951.00,0.0553
2950.00,0.0553
2949.00,0.0553
2948.00,0.0552
2947.00,0.0552
2946.00,0.0552
2945.00,0.0552
2944.00,0.0551
2943.00,0.0551
2942.00,0.0550
2941.00,0.0549
2940.00,0.0549
2939.00,0.0548
2938.00,0.0548
2937.00,0.0547
2936.00,0.0546
2935.00,0.0545
2934.00,0.0544
2933.00,0.0543
2932.00,0.0543
2931.00,0.0542
2930.00,0.0541
2929.00,0.0540
2928.00,0.0540
2927.00,0.0539
2926.00,0.0539
2925.00,0.0540
2924.00,0.0540
2923.00,0.0540
2922.00,0.0540
2921.00,0.0540
2920.00,0.0540
2919.00,0.0541
2918.00,0.0541
2917.00,0.0541
2916.00,0.0541
2915.00,0.0542
2914.00,0.0543
2913.00,0.0543
2912.00,0.0544
2911.00,0.0544
2910.00,0.0545
2909.00,0.0545
2908.00,0.0546
2907.00,0.0546
2906.00,0.0546
2905.00,0.0546
2904.00,0.0546
2903.00,0.0546
2902.00,0.0547
2901.00,0.0547
2900.00,0.0547
2899.00,0.0547
2898.00,0.0546
2897.00,0.0546
2896.00,0.0547
2895.00,0.0547
2894.00,0.0547
2893.00,0.0547
2892.00,0.0547
2891.00,0.0548
2890.00,0.0548
2889.00,0.0547
2888.00,0.0547
2887.00,0.0547
2886.00,0.0547
2885.00,0.0547
2884.00,0.0547
2883.00,0.0547
2882.00,0.0546
2881.00,0.0546
2880.00,0.0546
2879.00,0.0546
2878.00,0.0545
2877.00,0.0545
2876.00,0.0545
2875.00,0.0544
2874.00,0.0544
2873.00,0.0543
2872.00,0.0543
2871.00,0.0542
2870.00,0.0541
2869.00,0.0541
2868.00,0.0540
2867.00,0.0540
2866.00,0.0540
2865.00,0.0539
2864.00,0.0539
2863.00,0.0538
2862.00,0.0538
2861.00,0.0537
2860.00,0.0537
2859.00,0.0537
2858.00,0.0536
2857.00,0.0535
2856.00,0.0535
2855.00,0.0534
2854.00,0.0534
2853.00,0.0534
2852.00,0.0534
2851.00,0.0534
2850.00,0.0535
2849.00,0.0535
2848.00,0.0536
2847.00,0.0536
2846.00,0.0537
2845.00,0.0537
2844.00,0.0537
2843.00,0.0538
2842.00,0.0538
2841.00,0.0538
2840.00,0.0538
2839.00,0.0538
2838.00,0.0538
2837.00,0.0538
2836.00,0.0538
2835.00,0.0538
2834.00,0.0537
2833.00,0.0537
2832.00,0.0537
2831.00,0.0537
2830.00,0.0537
2829.00,0.0536
2828.00,0.0536
2827.00,0.0536
2826.00,0.0537
2825.00,0.0537
2824.00,0.0537
2823.00,0.0537
2822.00,0.0536
2821.00,0.0536
2820.00,0.0536
2819.00,0.0536
2818.00,0.0536
2817.00,0.0536
2816.00,0.0535
2815.00,0.0535
2814.00,0.0535
2813.00,0.0535
2812.00,0.0535
2811.00,0.0535
2810.00,0.0534
2809.00,0.0534
2808.00,0.0534
2807.00,0.0534
2806.00,0.0534
2805.00,0.0533
2804.00,0.0533
2803.00,0.0533
2802.00,0.0533
2801.00,0.0532
2800.00,0.0532
2799.00,0.0532
2798.00,0.0531
2797.00,0.0531
2796.00,0.0531
2795.00,0.0531
2794.00,0.0531
2793.00,0.0531
2792.00,0.0531
2791.00,0.0530
2790.00,0.0530
2789.00,0.0530
2788.00,0.0530
2787.00,0.0530
2786.00,0.0530
2785.00,0.0530
2784.00,0.0530
2783.00,0.0530
2782.00,0.0530
2781.00,0.0530
2780.00,0.0529
2779.00,0.0529
2778.00,0.0529
2777.00,0.0528
2776.00,0.0528
2775.00,0.0528
2774.00,0.0528
2773.00,0.0528
2772.00,0.0528
2771.00,0.0528
2770.00,0.0528
2769.00,0.0527
2768.00,0.0527
2767.00,0.0527
2766.00,0.0527
2765.00,0.0527
2764.00,0.0526
2763.00,0.0526
2762.00,0.0526
2761.00,0.0526
2760.00,0.0525
2759.00,0.0525
2758.00,0.0525
2757.00,0.0525
2756.00,0.0525
2755.00,0.0525
2754.00,0.0525
2753.00,0.0524
2752.00,0.0524
2751.00,0.0524
2750.00,0.0524
2749.00,0.0524
2748.00,0.0524
2747.00,0.0524
2746.00,0.0523
2745.00,0.0523
2744.00,0.0523
2743.00,0.0523
2742.00,0.0523
2741.00,0.0522
2740.00,0.0522
2739.00,0.0522
2738.00,0.0522
2737.00,0.0522
2736.00,0.0521
2735.00,0.0521
2734.00,0.0521
2733.00,0.0521
2732.00,0.0521
2731.00,0.0521
2730.00,0.0521
2729.00,0.0521
2728.00,0.0520
2727.00,0.0520
2726.00,0.0520
2725.00,0.0520
2724.00,0.0520
2723.00,0.0519
2722.00,0.0519
2721.00,0.0519
2720.00,0.0519
2719.00,0.0519
2718.00,0.0519
2717.00,0.0519
2716.00,0.0519
2715.00,0.0519
2714.00,0.0518
2713.00,0.0518
2712.00,0.0518
2711.00,0.0518
2710.00,0.0517
2709.00,0.0517
2708.00,0.0517
2707.00,0.0517
2706.00,0.0516
2705.00,0.0516
2704.00,0.0516
2703.00,0.0516
2702.00,0.0516
2701.00,0.0516
2700.00,0.0516
2699.00,0.0516
2698.00,0.0516
2697.00,0.0516
2696.00,0.0516
2695.00,0.0515
2694.00,0.0515
2693.00,0.0515
2692.00,0.0515
2691.00,0.0515
2690.00,0.0515
2689.00,0.0515
2688.00,0.0515
2687.00,0.0514
2686.00,0.0514
2685.00,0.0514
2684.00,0.0514
2683.00,0.0514
2682.00,0.0514
2681.00,0.0513
2680.00,0.0513
2679.00,0.0513
2678.00,0.0513
2677.00,0.0513
2676.00,0.0513
2675.00,0.0513
2674.00,0.0513
2673.00,0.0513
2672.00,0.0513
2671.00,0.0513
2670.00,0.0513
2669.00,0.0512
2668.00,0.0512
2667.00,0.0513
2666.00,0.0513
2665.00,0.0513
2664.00,0.0513
2663.00,0.0513
2662.00,0.0513
2661.00,0.0513
2660.00,0.0513
2659.00,0.0513
2658.00,0.0513
2657.00,0.0514
2656.00,0.0514
2655.00,0.0514
2654.00,0.0514
2653.00,0.0514
2652.00,0.0514
2651.00,0.0514
2650.00,0.0514
2649.00,0.0514
2648.00,0.0514
2647.00,0.0513
2646.00,0.0513
2645.00,0.0513
2644.00,0.0513
2643.00,0.0513
2642.00,0.0513
2641.00,0.0513
2640.00,0.0513
2639.00,0.0513
2638.00,0.0512
2637.00,0.0513
2636.00,0.0513
2635.00,0.0513
2634.00,0.0513
2633.00,0.0514
2632.00,0.0514
2631.00,0.0514
2630.00,0.0514
2629.00,0.0514
2628.00,0.0515
2627.00,0.0515
2626.00,0.0514
2625.00,0.0514
2624.00,0.0514
2623.00,0.0514
2622.00,0.0514
2621.00,0.0514
2620.00,0.0514
2619.00,0.0514
2618.00,0.0514
2617.00,0.0513
2616.00,0.0513
2615.00,0.0513
2614.00,0.0513
2613.00,0.0514
2612.00,0.0514
2611.00,0.0514
2610.00,0.0514
2609.00,0.0514
2608.00,0.0514
2607.00,0.0514
2606.00,0.0514
2605.00,0.0514
2604.00,0.0514
2603.00,0.0514
2602.00,0.0513
2601.00,0.0513
2600.00,0.0513
2599.00,0.0513
2598.00,0.0514
2597.00,0.0514
2596.00,0.0514
2595.00,0.0514
2594.00,0.0514
2593.00,0.0514
2592.00,0.0514
2591.00,0.0514
2590.00,0.0514
2589.00,0.0514
2588.00,0.0514
2587.00,0.0513
2586.00,0.0513
2585.00,0.0513
2584.00,0.0513
2583.00,0.0513
2582.00,0.0514
2581.00,0.0514
2580.00,0.0515
2579.00,0.0515
2578.00,0.0515
2577.00,0.0514
2576.00,0.0514
2575.00,0.0514
2574.00,0.0513
2573.00,0.0514
2572.00,0.0514
2571.00,0.0514
2570.00,0.0514
2569.00,0.0514
2568.00,0.0514
2567.00,0.0514
2566.00,0.0514
2565.00,0.0514
2564.00,0.0514
2563.00,0.0514
2562.00,0.0513
2561.00,0.0512
2560.00,0.0512
2559.00,0.0512
2558.00,0.0512
2557.00,0.0513
2556.00,0.0513
2555.00,0.0513
2554.00,0.0513
2553.00,0.0514
2552.00,0.0514
2551.00,0.0514
2550.00,0.0514
2549.00,0.0513
2548.00,0.0513
2547.00,0.0513
2546.00,0.0513
2545.00,0.0513
2544.00,0.0513
2543.00,0.0513
2542.00,0.0512
2541.00,0.0513
2540.00,0.0513
2539.00,0.0513
2538.00,0.0513
2537.00,0.0513
2536.00,0.0512
2535.00,0.0512
2534.00,0.0512
2533.00,0.0511
2532.00,0.0512
2531.00,0.0512
2530.00,0.0512
2529.00,0.0512
2528.00,0.0512
2527.00,0.0512
2526.00,0.0512
2525.00,0.0513
2524.00,0.0513
2523.00,0.0513
2522.00,0.0513
2521.00,0.0513
2520.00,0.0513
2519.00,0.0513
2518.00,0.0512
2517.00,0.0512
2516.00,0.0512
2515.00,0.0512
2514.00,0.0512
2513.00,0.0513
2512.00,0.0513
2511.00,0.0513
2510.00,0.0513
2509.00,0.0512
2508.00,0.0512
2507.00,0.0512
2506.00,0.0512
2505.00,0.0513
2504.00,0.0513
2503.00,0.0513
2502.00,0.0512
2501.00,0.0512
2500.00,0.0512
2499.00,0.0512
2498.00,0.0512
2497.00,0.0513
2496.00,0.0513
2495.00,0.0513
2494.00,0.0512
2493.00,0.0512
2492.00,0.0512
2491.00,0.0512
2490.00,0.0512
2489.00,0.0512
2488.00,0.0512
2487.00,0.0512
2486.00,0.0512
2485.00,0.0512
2484.00,0.0511
2483.00,0.0511
2482.00,0.0511
2481.00,0.0511
2480.00,0.0512
2479.00,0.0512
2478.00,0.0513
2477.00,0.0513
2476.00,0.0513
2475.00,0.0512
2474.00,0.0512
2473.00,0.0511
2472.00,0.0511
2471.00,0.0511
2470.00,0.0511
2469.00,0.0512
2468.00,0.0512
2467.00,0.0511
2466.00,0.0511
2465.00,0.0511
2464.00,0.0511
2463.00,0.0511
2462.00,0.0511
2461.00,0.0511
2460.00,0.0511
2459.00,0.0511
2458.00,0.0511
2457.00,0.0511
2456.00,0.0511
2455.00,0.0511
2454.00,0.0512
2453.00,0.0512
2452.00,0.0512
2451.00,0.0513
2450.00,0.0512
2449.00,0.0512
2448.00,0.0512
2447.00,0.0511
2446.00,0.0511
2445.00,0.0511
2444.00,0.0511
2443.00,0.0511
2442.00,0.0511
2441.00,0.0511
2440.00,0.0510
2439.00,0.0510
2438.00,0.0509
2437.00,0.0509
2436.00,0.0509
2435.00,0.0509
2434.00,0.0509
2433.00,0.0510
2432.00,0.0510
2431.00,0.0510
2430.00,0.0510
2429.00,0.0509
2428.00,0.0509
2427.00,0.0509
2426.00,0.0510
2425.00,0.0510
2424.00,0.0510
2423.00,0.0509
2422.00,0.0509
2421.00,0.0508
2420.00,0.0508
2419.00,0.0508
2418.00,0.0508
2417.00,0.0508
2416.00,0.0507
2415.00,0.0507
2414.00,0.0507
2413.00,0.0507
2412.00,0.0507
2411.00,0.0507
2410.00,0.0507
2409.00,0.0506
2408.00,0.0506
2407.00,0.0506
2406.00,0.0507
2405.00,0.0507
2404.00,0.0507
2403.00,0.0507
2402.00,0.0506
2401.00,0.0505
2400.00,0.0505
2399.00,0.0505
2398.00,0.0505
2397.00,0.0505
2396.00,0.0505
2395.00,0.0505
2394.00,0.0505
2393.00,0.0504
2392.00,0.0504
2391.00,0.0504
2390.00,0.0503
2389.00,0.0503
2388.00,0.0503
2387.00,0.0503
2386.00,0.0503
2385.00,0.0502
2384.00,0.0502
2383.00,0.0501
2382.00,0.0500
2381.00,0.0499
2380.00,0.0497
2379.00,0.0496
2378.00,0.0495
2377.00,0.0493
2376.00,0.0493
2375.00,0.0492
2374.00,0.0491
2373.00,0.0492
2372.00,0.0492
2371.00,0.0493
2370.00,0.0494
2369.00,0.0494
2368.00,0.0494
2367.00,0.0494
2366.00,0.0493
2365.00,0.0492
2364.00,0.0491
2363.00,0.0489
2362.00,0.0488
2361.00,0.0489
2360.00,0.0491
2359.00,0.0492
2358.00,0.0493
2357.00,0.0494
2356.00,0.0496
2355.00,0.0498
2354.00,0.0500
2353.00,0.0502
2352.00,0.0503
2351.00,0.0500
2350.00,0.0494
2349.00,0.0485
2348.00,0.0479
2347.00,0.0478
2346.00,0.0482
2345.00,0.0488
2344.00,0.0492
2343.00,0.0493
2342.00,0.0493
2341.00,0.0493
2340.00,0.0494
2339.00,0.0494
2338.00,0.0494
2337.00,0.0494
2336.00,0.0494
2335.00,0.0492
2334.00,0.0491
2333.00,0.0491
2332.00,0.0492
2331.00,0.0494
2330.00,0.0496
2329.00,0.0498
2328.00,0.0499
2327.00,0.0499
2326.00,0.0499
2325.00,0.0500
2324.00,0.0501
2323.00,0.0501
2322.00,0.0502
2321.00,0.0503
2320.00,0.0503
2319.00,0.0502
2318.00,0.0502
2317.00,0.0501
2316.00,0.0501
2315.00,0.0501
2314.00,0.0500
2313.00,0.0501
2312.00,0.0501
2311.00,0.0501
2310.00,0.0500
2309.00,0.0500
2308.00,0.0499
2307.00,0.0498
2306.00,0.0497
2305.00,0.0497
2304.00,0.0496
2303.00,0.0496
2302.00,0.0496
2301.00,0.0496
2300.00,0.0496
2299.00,0.0496
2298.00,0.0496
2297.00,0.0497
2296.00,0.0497
2295.00,0.0497
2294.00,0.0498
2293.00,0.0498
2292.00,0.0499
2291.00,0.0499
2290.00,0.0499
2289.00,0.0500
2288.00,0.0500
2287.00,0.0500
2286.00,0.0500
2285.00,0.0499
2284.00,0.0499
2283.00,0.0499
2282.00,0.0499
2281.00,0.0500
2280.00,0.0500
2279.00,0.0500
2278.00,0.0500
2277.00,0.0499
2276.00,0.0498
2275.00,0.0498
2274.00,0.0498
2273.00,0.0498
2272.00,0.0499
2271.00,0.0498
2270.00,0.0498
2269.00,0.0498
2268.00,0.0497
2267.00,0.0497
2266.00,0.0498
2265.00,0.0498
2264.00,0.0499
2263.00,0.0499
2262.00,0.0499
2261.00,0.0499
2260.00,0.0499
2259.00,0.0499
2258.00,0.0498
2257.00,0.0497
2256.00,0.0496
2255.00,0.0496
2254.00,0.0497
2253.00,0.0498
2252.00,0.0498
2251.00,0.0498
2250.00,0.0497
2249.00,0.0495
2248.00,0.0495
2247.00,0.0495
2246.00,0.0495
2245.00,0.0496
2244.00,0.0497
2243.00,0.0497
2242.00,0.0498
2241.00,0.0498
2240.00,0.0497
2239.00,0.0496
2238.00,0.0496
2237.00,0.0496
2236.00,0.0496
2235.00,0.0496
2234.00,0.0497
2233.00,0.0498
2232.00,0.0499
2231.00,0.0499
2230.00,0.0499
2229.00,0.0499
2228.00,0.0498
2227.00,0.0497
2226.00,0.0496
2225.00,0.0495
2224.00,0.0494
2223.00,0.0494
2222.00,0.0494
2221.00,0.0494
2220.00,0.0495
2219.00,0.0496
2218.00,0.0496
2217.00,0.0496
2216.00,0.0495
2215.00,0.0495
2214.00,0.0496
2213.00,0.0496
2212.00,0.0496
2211.00,0.0494
2210.00,0.0493
2209.00,0.0492
2208.00,0.0492
2207.00,0.0492
2206.00,0.0493
2205.00,0.0493
2204.00,0.0494
2203.00,0.0495
2202.00,0.0495
2201.00,0.0495
2200.00,0.0495
2199.00,0.0495
2198.00,0.0496
2197.00,0.0496
2196.00,0.0495
2195.00,0.0495
2194.00,0.0494
2193.00,0.0493
2192.00,0.0493
2191.00,0.0493
2190.00,0.0494
2189.00,0.0495
2188.00,0.0496
2187.00,0.0496
2186.00,0.0496
2185.00,0.0495
2184.00,0.0493
2183.00,0.0492
2182.00,0.0491
2181.00,0.0491
2180.00,0.0492
2179.00,0.0492
2178.00,0.0491
2177.00,0.0490
2176.00,0.0489
2175.00,0.0490
2174.00,0.0492
2173.00,0.0494
2172.00,0.0495
2171.00,0.0496
2170.00,0.0497
2169.00,0.0498
2168.00,0.0498
2167.00,0.0497
2166.00,0.0497
2165.00,0.0497
2164.00,0.0499
2163.00,0.0499
2162.00,0.0497
2161.00,0.0494
2160.00,0.0490
2159.00,0.0488
2158.00,0.0488
2157.00,0.0489
2156.00,0.0488
2155.00,0.0486
2154.00,0.0484
2153.00,0.0483
2152.00,0.0483
2151.00,0.0482
2150.00,0.0481
2149.00,0.0481
2148.00,0.0481
2147.00,0.0481
2146.00,0.0482
2145.00,0.0482
2144.00,0.0482
2143.00,0.0481
2142.00,0.0481
2141.00,0.0481
2140.00,0.0480
2139.00,0.0480
2138.00,0.0479
2137.00,0.0478
2136.00,0.0476
2135.00,0.0475
2134.00,0.0474
2133.00,0.0474
2132.00,0.0474
2131.00,0.0473
2130.00,0.0473
2129.00,0.0473
2128.00,0.0474
2127.00,0.0475
2126.00,0.0475
2125.00,0.0475
2124.00,0.0476
2123.00,0.0476
2122.00,0.0476
2121.00,0.0477
2120.00,0.0477
2119.00,0.0478
2118.00,0.0478
2117.00,0.0478
2116.00,0.0478
2115.00,0.0477
2114.00,0.0477
2113.00,0.0476
2112.00,0.0476
2111.00,0.0476
2110.00,0.0476
2109.00,0.0476
2108.00,0.0476
2107.00,0.0476
2106.00,0.0476
2105.00,0.0475
2104.00,0.0474
2103.00,0.0474
2102.00,0.0474
2101.00,0.0474
2100.00,0.0473
2099.00,0.0473
2098.00,0.0472
2097.00,0.0472
2096.00,0.0472
2095.00,0.0472
2094.00,0.0472
2093.00,0.0471
2092.00,0.0471
2091.00,0.0471
2090.00,0.0471
2089.00,0.0472
2088.00,0.0472
2087.00,0.0472
2086.00,0.0471
2085.00,0.0471
2084.00,0.0471
2083.00,0.0471
2082.00,0.0471
2081.00,0.0470
2080.00,0.0470
2079.00,0.0471
2078.00,0.0471
2077.00,0.0472
2076.00,0.0472
2075.00,0.0471
2074.00,0.0470
2073.00,0.0469
2072.00,0.0469
2071.00,0.0468
2070.00,0.0468
2069.00,0.0468
2068.00,0.0468
2067.00,0.0468
2066.00,0.0467
2065.00,0.0467
2064.00,0.0467
2063.00,0.0466
2062.00,0.0467
2061.00,0.0467
2060.00,0.0467
2059.00,0.0466
2058.00,0.0466
2057.00,0.0466
2056.00,0.0467
2055.00,0.0468
2054.00,0.0469
2053.00,0.0470
2052.00,0.0470
2051.00,0.0470
2050.00,0.0470
2049.00,0.0470
2048.00,0.0469
2047.00,0.0470
2046.00,0.0471
2045.00,0.0472
2044.00,0.0473
2043.00,0.0473
2042.00,0.0471
2041.00,0.0469
2040.00,0.0467
2039.00,0.0466
2038.00,0.0468
2037.00,0.0471
2036.00,0.0474
2035.00,0.0475
2034.00,0.0474
2033.00,0.0471
2032.00,0.0469
2031.00,0.0466
2030.00,0.0465
2029.00,0.0466
2028.00,0.0466
2027.00,0.0466
2026.00,0.0465
2025.00,0.0464
2024.00,0.0463
2023.00,0.0463
2022.00,0.0464
2021.00,0.0465
2020.00,0.0465
2019.00,0.0464
2018.00,0.0462
2017.00,0.0462
2016.00,0.0462
2015.00,0.0463
2014.00,0.0464
2013.00,0.0465
2012.00,0.0465
2011.00,0.0466
2010.00,0.0465
2009.00,0.0463
2008.00,0.0461
2007.00,0.0459
2006.00,0.0459
2005.00,0.0460
2004.00,0.0462
2003.00,0.0463
2002.00,0.0463
2001.00,0.0463
2000.00,0.0462
1999.00,0.0462
1998.00,0.0463
1997.00,0.0463
1996.00,0.0464
1995.00,0.0464
1994.00,0.0463
1993.00,0.0462
1992.00,0.0460
1991.00,0.0459
1990.00,0.0459
1989.00,0.0459
1988.00,0.0459
1987.00,0.0459
1986.00,0.0459
1985.00,0.0461
1984.00,0.0463
1983.00,0.0464
1982.00,0.0464
1981.00,0.0465
1980.00,0.0464
1979.00,0.0462
1978.00,0.0460
1977.00,0.0458
1976.00,0.0456
1975.00,0.0455
1974.00,0.0454
1973.00,0.0454
1972.00,0.0454
1971.00,0.0454
1970.00,0.0455
1969.00,0.0454
1968.00,0.0452
1967.00,0.0451
1966.00,0.0451
1965.00,0.0451
1964.00,0.0452
1963.00,0.0452
1962.00,0.0450
1961.00,0.0449
1960.00,0.0447
1959.00,0.0446
1958.00,0.0446
1957.00,0.0446
1956.00,0.0446
1955.00,0.0447
1954.00,0.0447
1953.00,0.0446
1952.00,0.0445
1951.00,0.0444
1950.00,0.0443
1949.00,0.0444
1948.00,0.0444
1947.00,0.0445
1946.00,0.0446
1945.00,0.0446
1944.00,0.0445
1943.00,0.0444
1942.00,0.0442
1941.00,0.0439
1940.00,0.0438
1939.00,0.0437
1938.00,0.0437
1937.00,0.0438
1936.00,0.0440
1935.00,0.0440
1934.00,0.0440
1933.00,0.0439
1932.00,0.0438
1931.00,0.0436
1930.00,0.0435
1929.00,0.0434
1928.00,0.0433
1927.00,0.0433
1926.00,0.0433
1925.00,0.0433
1924.00,0.0433
1923.00,0.0432
1922.00,0.0431
1921.00,0.0432
1920.00,0.0433
1919.00,0.0432
1918.00,0.0431
1917.00,0.0429
1916.00,0.0428
1915.00,0.0428
1914.00,0.0429
1913.00,0.0430
1912.00,0.0429
1911.00,0.0429
1910.00,0.0427
1909.00,0.0426
1908.00,0.0425
1907.00,0.0424
1906.00,0.0423
1905.00,0.0423
1904.00,0.0422
1903.00,0.0422
1902.00,0.0421
1901.00,0.0421
1900.00,0.0422
1899.00,0.0422
1898.00,0.0422
1897.00,0.0422
1896.00,0.0420
1895.00,0.0419
1894.00,0.0418
1893.00,0.0418
1892.00,0.0418
1891.00,0.0417
1890.00,0.0416
1889.00,0.0415
1888.00,0.0414
1887.00,0.0413
1886.00,0.0413
1885.00,0.0413
1884.00,0.0412
1883.00,0.0412
1882.00,0.0412
1881.00,0.0412
1880.00,0.0411
1879.00,0.0410
1878.00,0.0410
1877.00,0.0410
1876.00,0.0409
1875.00,0.0409
1874.00,0.0408
1873.00,0.0408
1872.00,0.0408
1871.00,0.0408
1870.00,0.0408
1869.00,0.0405
1868.00,0.0402
1867.00,0.0400
1866.00,0.0400
1865.00,0.0401
1864.00,0.0401
1863.00,0.0402
1862.00,0.0401
1861.00,0.0401
1860.00,0.0400
1859.00,0.0399
1858.00,0.0398
1857.00,0.0398
1856.00,0.0398
1855.00,0.0397
1854.00,0.0396
1853.00,0.0395
1852.00,0.0395
1851.00,0.0395
1850.00,0.0395
1849.00,0.0394
1848.00,0.0394
1847.00,0.0394
1846.00,0.0394
1845.00,0.0393
1844.00,0.0389
1843.00,0.0386
1842.00,0.0386
1841.00,0.0386
1840.00,0.0387
1839.00,0.0387
1838.00,0.0386
1837.00,0.0385
1836.00,0.0384
1835.00,0.0383
1834.00,0.0383
1833.00,0.0384
1832.00,0.0384
1831.00,0.0382
1830.00,0.0379
1829.00,0.0375
1828.00,0.0374
1827.00,0.0374
1826.00,0.0374
1825.00,0.0372
1824.00,0.0371
1823.00,0.0371
1822.00,0.0371
1821.00,0.0371
1820.00,0.0371
1819.00,0.0370
1818.00,0.0369
1817.00,0.0367
1816.00,0.0366
1815.00,0.0366
1814.00,0.0365
1813.00,0.0365
1812.00,0.0364
1811.00,0.0362
1810.00,0.0360
1809.00,0.0359
1808.00,0.0359
1807.00,0.0359
1806.00,0.0359
1805.00,0.0359
1804.00,0.0359
1803.00,0.0359
1802.00,0.0358
1801.00,0.0357
1800.00,0.0356
1799.00,0.0355
1798.00,0.0356
1797.00,0.0357
1796.00,0.0358
1795.00,0.0358
1794.00,0.0359
1793.00,0.0358
1792.00,0.0354
1791.00,0.0350
1790.00,0.0349
1789.00,0.0351
1788.00,0.0353
1787.00,0.0354
1786.00,0.0356
1785.00,0.0357
1784.00,0.0357
1783.00,0.0357
1782.00,0.0358
1781.00,0.0357
1780.00,0.0357
1779.00,0.0358
1778.00,0.0360
1777.00,0.0363
1776.00,0.0366
1775.00,0.0369
1774.00,0.0371
1773.00,0.0371
1772.00,0.0369
1771.00,0.0367
1770.00,0.0369
1769.00,0.0371
1768.00,0.0374
1767.00,0.0375
1766.00,0.0377
1765.00,0.0379
1764.00,0.0382
1763.00,0.0383
1762.00,0.0383
1761.00,0.0383
1760.00,0.0385
1759.00,0.0387
1758.00,0.0389
1757.00,0.0389
1756.00,0.0391
1755.00,0.0393
1754.00,0.0397
1753.00,0.0401
1752.00,0.0405
1751.00,0.0409
1750.00,0.0409
1749.00,0.0409
1748.00,0.0409
1747.00,0.0411
1746.00,0.0413
1745.00,0.0416
1744.00,0.0419
1743.00,0.0421
1742.00,0.0424
1741.00,0.0427
1740.00,0.0432
1739.00,0.0435
1738.00,0.0438
1737.00,0.0442
1736.00,0.0447
1735.00,0.0453
1734.00,0.0456
1733.00,0.0455
1732.00,0.0455
1731.00,0.0456
1730.00,0.0457
1729.00,0.0460
1728.00,0.0464
1727.00,0.0467
1726.00,0.0470
1725.00,0.0473
1724.00,0.0475
1723.00,0.0477
1722.00,0.0479
1721.00,0.0480
1720.00,0.0482
1719.00,0.0483
1718.00,0.0487
1717.00,0.0490
1716.00,0.0489
1715.00,0.0488
1714.00,0.0488
1713.00,0.0490
1712.00,0.0492
1711.00,0.0493
1710.00,0.0495
1709.00,0.0496
1708.00,0.0497
1707.00,0.0497
1706.00,0.0497
1705.00,0.0497
1704.00,0.0498
1703.00,0.0498
1702.00,0.0499
1701.00,0.0503
1700.00,0.0506
1699.00,0.0506
1698.00,0.0506
1697.00,0.0505
1696.00,0.0502
1695.00,0.0499
1694.00,0.0499
1693.00,0.0500
1692.00,0.0501
1691.00,0.0501
1690.00,0.0501
1689.00,0.0502
1688.00,0.0502
1687.00,0.0501
1686.00,0.0500
1685.00,0.0499
1684.00,0.0495
1683.00,0.0493
1682.00,0.0496
1681.00,0.0498
1680.00,0.0499
1679.00,0.0500
1678.00,0.0501
1677.00,0.0503
1676.00,0.0505
1675.00,0.0507
1674.00,0.0508
1673.00,0.0509
1672.00,0.0509
1671.00,0.0510
1670.00,0.0511
1669.00,0.0510
1668.00,0.0509
1667.00,0.0511
1666.00,0.0512
1665.00,0.0514
1664.00,0.0516
1663.00,0.0518
1662.00,0.0520
1661.00,0.0521
1660.00,0.0523
1659.00,0.0525
1658.00,0.0527
1657.00,0.0527
1656.00,0.0526
1655.00,0.0526
1654.00,0.0529
1653.00,0.0531
1652.00,0.0532
1651.00,0.0536
1650.00,0.0539
1649.00,0.0541
1648.00,0.0545
1647.00,0.0548
1646.00,0.0549
1645.00,0.0551
1644.00,0.0554
1643.00,0.0556
1642.00,0.0558
1641.00,0.0560
1640.00,0.0561
1639.00,0.0562
1638.00,0.0563
1637.00,0.0566
1636.00,0.0568
1635.00,0.0570
1634.00,0.0574
1633.00,0.0578
1632.00,0.0581
1631.00,0.0583
1630.00,0.0585
1629.00,0.0587
1628.00,0.0589
1627.00,0.0592
1626.00,0.0595
1625.00,0.0598
1624.00,0.0601
1623.00,0.0605
1622.00,0.0607
1621.00,0.0609
1620.00,0.0611
1619.00,0.0613
1618.00,0.0616
1617.00,0.0620
1616.00,0.0623
1615.00,0.0624
1614.00,0.0626
1613.00,0.0627
1612.00,0.0630
1611.00,0.0633
1610.00,0.0636
1609.00,0.0638
1608.00,0.0640
1607.00,0.0643
1606.00,0.0645
1605.00,0.0646
1604.00,0.0649
1603.00,0.0651
1602.00,0.0653
1601.00,0.0655
1600.00,0.0656
1599.00,0.0658
1598.00,0.0660
1597.00,0.0662
1596.00,0.0664
1595.00,0.0665
1594.00,0.0667
1593.00,0.0668
1592.00,0.0670
1591.00,0.0672
1590.00,0.0674
1589.00,0.0676
1588.00,0.0677
1587.00,0.0679
1586.00,0.0681
1585.00,0.0682
1584.00,0.0683
1583.00,0.0685
1582.00,0.0687
1581.00,0.0688
1580.00,0.0688
1579.00,0.0688
1578.00,0.0689
1577.00,0.0692
1576.00,0.0695
1575.00,0.0697
1574.00,0.0697
1573.00,0.0696
1572.00,0.0695
1571.00,0.0696
1570.00,0.0699
1569.00,0.0701
1568.00,0.0702
1567.00,0.0702
1566.00,0.0703
1565.00,0.0703
1564.00,0.0703
1563.00,0.0701
1562.00,0.0697
1561.00,0.0690
1560.00,0.0693
1559.00,0.0704
1558.00,0.0706
1557.00,0.0708
1556.00,0.0709
1555.00,0.0709
1554.00,0.0709
1553.00,0.0707
1552.00,0.0706
1551.00,0.0704
1550.00,0.0702
1549.00,0.0701
1548.00,0.0701
1547.00,0.0700
1546.00,0.0700
1545.00,0.0700
1544.00,0.0701
1543.00,0.0700
1542.00,0.0700
1541.00,0.0701
1540.00,0.0698
1539.00,0.0693
1538.00,0.0692
1537.00,0.0692
1536.00,0.0690
1535.00,0.0688
1534.00,0.0687
1533.00,0.0685
1532.00,0.0683
1531.00,0.0682
1530.00,0.0681
1529.00,0.0680
1528.00,0.0679
1527.00,0.0678
1526.00,0.0678
1525.00,0.0677
1524.00,0.0675
1523.00,0.0673
1522.00,0.0672
1521.00,0.0670
1520.00,0.0667
1519.00,0.0664
1518.00,0.0662
1517.00,0.0660
1516.00,0.0659
1515.00,0.0658
1514.00,0.0657
1513.00,0.0657
1512.00,0.0656
1511.00,0.0654
1510.00,0.0651
1509.00,0.0648
1508.00,0.0649
1507.00,0.0646
1506.00,0.0640
1505.00,0.0640
1504.00,0.0642
1503.00,0.0641
1502.00,0.0638
1501.00,0.0636
1500.00,0.0634
1499.00,0.0632
1498.00,0.0630
1497.00,0.0631
1496.00,0.0631
1495.00,0.0631
1494.00,0.0630
1493.00,0.0631
1492.00,0.0631
1491.00,0.0632
1490.00,0.0631
1489.00,0.0628
1488.00,0.0625
1487.00,0.0623
1486.00,0.0622
1485.00,0.0623
1484.00,0.0623
1483.00,0.0623
1482.00,0.0622
1481.00,0.0622
1480.00,0.0622
1479.00,0.0621
1478.00,0.0620
1477.00,0.0620
1476.00,0.0622
1475.00,0.0624
1474.00,0.0627
1473.00,0.0629
1472.00,0.0627
1471.00,0.0625
1470.00,0.0624
1469.00,0.0624
1468.00,0.0624
1467.00,0.0623
1466.00,0.0624
1465.00,0.0626
1464.00,0.0628
1463.00,0.0628
1462.00,0.0628
1461.00,0.0627
1460.00,0.0626
1459.00,0.0626
1458.00,0.0630
1457.00,0.0633
1456.00,0.0634
1455.00,0.0634
1454.00,0.0633
1453.00,0.0632
1452.00,0.0633
1451.00,0.0634
1450.00,0.0635
1449.00,0.0636
1448.00,0.0637
1447.00,0.0638
1446.00,0.0637
1445.00,0.0638
1444.00,0.0639
1443.00,0.0639
1442.00,0.0640
1441.00,0.0640
1440.00,0.0641
1439.00,0.0642
1438.00,0.0643
1437.00,0.0645
1436.00,0.0648
1435.00,0.0648
1434.00,0.0648
1433.00,0.0647
1432.00,0.0648
1431.00,0.0648
1430.00,0.0649
1429.00,0.0649
1428.00,0.0650
1427.00,0.0651
1426.00,0.0651
1425.00,0.0651
1424.00,0.0652
1423.00,0.0653
1422.00,0.0653
1421.00,0.0653
1420.00,0.0656
1419.00,0.0658
1418.00,0.0659
1417.00,0.0659
1416.00,0.0660
1415.00,0.0661
1414.00,0.0661
1413.00,0.0661
1412.00,0.0661
1411.00,0.0661
1410.00,0.0661
1409.00,0.0662
1408.00,0.0662
1407.00,0.0663
1406.00,0.0664
1405.00,0.0665
1404.00,0.0667
1403.00,0.0668
1402.00,0.0669
1401.00,0.0670
1400.00,0.0672
1399.00,0.0674
1398.00,0.0675
1397.00,0.0676
1396.00,0.0677
1395.00,0.0678
1394.00,0.0678
1393.00,0.0679
1392.00,0.0679
1391.00,0.0680
1390.00,0.0681
1389.00,0.0682
1388.00,0.0684
1387.00,0.0685
1386.00,0.0686
1385.00,0.0686
1384.00,0.0687
1383.00,0.0688
1382.00,0.0689
1381.00,0.0690
1380.00,0.0691
1379.00,0.0692
1378.00,0.0692
1377.00,0.0692
1376.00,0.0692
1375.00,0.0692
1374.00,0.0693
1373.00,0.0694
1372.00,0.0695
1371.00,0.0695
1370.00,0.0695
1369.00,0.0696
1368.00,0.0696
1367.00,0.0696
1366.00,0.0696
1365.00,0.0695
1364.00,0.0695
1363.00,0.0695
1362.00,0.0696
1361.00,0.0696
1360.00,0.0697
1359.00,0.0697
1358.00,0.0697
1357.00,0.0697
1356.00,0.0697
1355.00,0.0697
1354.00,0.0697
1353.00,0.0697
1352.00,0.0697
1351.00,0.0698
1350.00,0.0698
1349.00,0.0698
1348.00,0.0698
1347.00,0.0698
1346.00,0.0698
1345.00,0.0698
1344.00,0.0697
1343.00,0.0697
1342.00,0.0697
1341.00,0.0697
1340.00,0.0697
1339.00,0.0697
1338.00,0.0697
1337.00,0.0697
1336.00,0.0697
1335.00,0.0696
1334.00,0.0696
1333.00,0.0696
1332.00,0.0696
1331.00,0.0696
1330.00,0.0696
1329.00,0.0696
1328.00,0.0696
1327.00,0.0695
1326.00,0.0695
1325.00,0.0694
1324.00,0.0694
1323.00,0.0695
1322.00,0.0695
1321.00,0.0696
1320.00,0.0696
1319.00,0.0696
1318.00,0.0696
1317.00,0.0696
1316.00,0.0696
1315.00,0.0696
1314.00,0.0696
1313.00,0.0696
1312.00,0.0696
1311.00,0.0696
1310.00,0.0696
1309.00,0.0696
1308.00,0.0695
1307.00,0.0695
1306.00,0.0696
1305.00,0.0696
1304.00,0.0696
1303.00,0.0697
1302.00,0.0698
1301.00,0.0698
1300.00,0.0698
1299.00,0.0698
1298.00,0.0698
1297.00,0.0698
1296.00,0.0699
1295.00,0.0699
1294.00,0.0700
1293.00,0.0700
1292.00,0.0701
1291.00,0.0701
1290.00,0.0702
1289.00,0.0702
1288.00,0.0703
1287.00,0.0703
1286.00,0.0704
1285.00,0.0704
1284.00,0.0704
1283.00,0.0705
1282.00,0.0707
1281.00,0.0708
1280.00,0.0709
1279.00,0.0709
1278.00,0.0710
1277.00,0.0710
1276.00,0.0711
1275.00,0.0711
1274.00,0.0712
1273.00,0.0712
1272.00,0.0713
1271.00,0.0714
1270.00,0.0714
1269.00,0.0715
1268.00,0.0716
1267.00,0.0717
1266.00,0.0718
1265.00,0.0719
1264.00,0.0720
1263.00,0.0721
1262.00,0.0721
1261.00,0.0722
1260.00,0.0723
1259.00,0.0724
1258.00,0.0725
1257.00,0.0725
1256.00,0.0726
1255.00,0.0727
1254.00,0.0728
1253.00,0.0728
1252.00,0.0729
1251.00,0.0730
1250.00,0.0730
1249.00,0.0730
1248.00,0.0731
1247.00,0.0732
1246.00,0.0733
1245.00,0.0733
1244.00,0.0733
1243.00,0.0734
1242.00,0.0735
1241.00,0.0735
1240.00,0.0736
1239.00,0.0737
1238.00,0.0737
1237.00,0.0737
1236.00,0.0738
1235.00,0.0738
1234.00,0.0738
1233.00,0.0739
1232.00,0.0739
1231.00,0.0740
1230.00,0.0740
1229.00,0.0740
1228.00,0.0740
1227.00,0.0741
1226.00,0.0741
1225.00,0.0741
1224.00,0.0740
1223.00,0.0740
1222.00,0.0740
1221.00,0.0740
1220.00,0.0741
1219.00,0.0741
1218.00,0.0741
1217.00,0.0741
1216.00,0.0741
1215.00,0.0741
1214.00,0.0741
1213.00,0.0741
1212.00,0.0741
1211.00,0.0741
1210.00,0.0741
1209.00,0.0741
1208.00,0.0742
1207.00,0.0742
1206.00,0.0742
1205.00,0.0743
1204.00,0.0743
1203.00,0.0744
1202.00,0.0743
1201.00,0.0743
1200.00,0.0743
1199.00,0.0743
1198.00,0.0743
1197.00,0.0743
1196.00,0.0744
1195.00,0.0744
1194.00,0.0744
1193.00,0.0744
1192.00,0.0744
1191.00,0.0745
1190.00,0.0745
1189.00,0.0745
1188.00,0.0745
1187.00,0.0746
1186.00,0.0746
1185.00,0.0747
1184.00,0.0747
1183.00,0.0748
1182.00,0.0748
1181.00,0.0748
1180.00,0.0748
1179.00,0.0749
1178.00,0.0750
1177.00,0.0750
1176.00,0.0751
1175.00,0.0752
1174.00,0.0752
1173.00,0.0752
1172.00,0.0752
1171.00,0.0752
1170.00,0.0752
1169.00,0.0753
1168.00,0.0754
1167.00,0.0755
1166.00,0.0755
1165.00,0.0755
1164.00,0.0755
1163.00,0.0756
1162.00,0.0756
1161.00,0.0756
1160.00,0.0756
1159.00,0.0756
1158.00,0.0756
1157.00,0.0755
1156.00,0.0756
1155.00,0.0756
1154.00,0.0756
1153.00,0.0756
1152.00,0.0755
1151.00,0.0755
1150.00,0.0755
1149.00,0.0756
1148.00,0.0757
1147.00,0.0757
1146.00,0.0758
1145.00,0.0758
1144.00,0.0759
1143.00,0.0760
1142.00,0.0760
1141.00,0.0760
1140.00,0.0760
1139.00,0.0760
1138.00,0.0761
1137.00,0.0762
1136.00,0.0764
1135.00,0.0765
1134.00,0.0767
1133.00,0.0769
1132.00,0.0770
1131.00,0.0772
1130.00,0.0773
1129.00,0.0774
1128.00,0.0776
1127.00,0.0778
1126.00,0.0781
1125.00,0.0783
1124.00,0.0786
1123.00,0.0790
1122.00,0.0795
1121.00,0.0799
1120.00,0.0803
1119.00,0.0807
1118.00,0.0811
1117.00,0.0814
1116.00,0.0817
1115.00,0.0819
1114.00,0.0819
1113.00,0.0819
1112.00,0.0820
1111.00,0.0822
1110.00,0.0824
1109.00,0.0826
1108.00,0.0829
1107.00,0.0831
1106.00,0.0832
1105.00,0.0833
1104.00,0.0835
1103.00,0.0837
1102.00,0.0840
1101.00,0.0841
1100.00,0.0842
1099.00,0.0843
1098.00,0.0844
1097.00,0.0846
1096.00,0.0847
1095.00,0.0848
1094.00,0.0849
1093.00,0.0850
1092.00,0.0852
1091.00,0.0853
1090.00,0.0855
1089.00,0.0857
1088.00,0.0858
1087.00,0.0858
1086.00,0.0858
1085.00,0.0857
1084.00,0.0857
1083.00,0.0858
1082.00,0.0859
1081.00,0.0859
1080.00,0.0860
1079.00,0.0861
1078.00,0.0862
1077.00,0.0862
1076.00,0.0863
1075.00,0.0865
1074.00,0.0866
1073.00,0.0867
1072.00,0.0867
1071.00,0.0868
1070.00,0.0869
1069.00,0.0870
1068.00,0.0872
1067.00,0.0874
1066.00,0.0875
1065.00,0.0876
1064.00,0.0877
1063.00,0.0879
1062.00,0.0881
1061.00,0.0882
1060.00,0.0884
1059.00,0.0886
1058.00,0.0887
1057.00,0.0889
1056.00,0.0890
1055.00,0.0891
1054.00,0.0892
1053.00,0.0893
1052.00,0.0896
1051.00,0.0900
1050.00,0.0904
1049.00,0.0908
1048.00,0.0912
1047.00,0.0914
1046.00,0.0916
1045.00,0.0918
1044.00,0.0921
1043.00,0.0924
1042.00,0.0927
1041.00,0.0930
1040.00,0.0934
1039.00,0.0938
1038.00,0.0942
1037.00,0.0946
1036.00,0.0949
1035.00,0.0951
1034.00,0.0952
1033.00,0.0953
1032.00,0.0952
1031.00,0.0951
1030.00,0.0949
1029.00,0.0946
1028.00,0.0943
1027.00,0.0938
1026.00,0.0934
1025.00,0.0929
1024.00,0.0925
1023.00,0.0921
1022.00,0.0918
1021.00,0.0916
1020.00,0.0916
1019.00,0.0916
1018.00,0.0916
1017.00,0.0916
1016.00,0.0917
1015.00,0.0918
1014.00,0.0919
1013.00,0.0921
1012.00,0.0922
1011.00,0.0924
1010.00,0.0926
1009.00,0.0928
1008.00,0.0930
1007.00,0.0931
1006.00,0.0930
1005.00,0.0928
1004.00,0.0926
1003.00,0.0925
1002.00,0.0923
1001.00,0.0920
1000.00,0.0916
999.00,0.0911
998.00,0.0906
997.00,0.0901
996.00,0.0897
995.00,0.0891
994.00,0.0886
993.00,0.0881
992.00,0.0876
991.00,0.0871
990.00,0.0867
989.00,0.0863
988.00,0.0860
987.00,0.0857
986.00,0.0854
985.00,0.0851
984.00,0.0848
983.00,0.0845
982.00,0.0843
981.00,0.0841
980.00,0.0840
979.00,0.0838
978.00,0.0836
977.00,0.0833
976.00,0.0830
975.00,0.0827
974.00,0.0825
973.00,0.0823
972.00,0.0822
971.00,0.0821
970.00,0.0820
969.00,0.0819
968.00,0.0818
967.00,0.0817
966.00,0.0816
965.00,0.0814
964.00,0.0813
963.00,0.0812
962.00,0.0810
961.00,0.0809
960.00,0.0808
959.00,0.0808
958.00,0.0807
957.00,0.0807
956.00,0.0807
955.00,0.0807
954.00,0.0807
953.00,0.0807
952.00,0.0806
951.00,0.0806
950.00,0.0806
949.00,0.0806
948.00,0.0806
947.00,0.0807
946.00,0.0809
945.00,0.0810
944.00,0.0811
943.00,0.0812
942.00,0.0812
941.00,0.0813
940.00,0.0815
939.00,0.0817
938.00,0.0818
937.00,0.0818
936.00,0.0818
935.00,0.0817
934.00,0.0816
933.00,0.0814
932.00,0.0813
931.00,0.0813
930.00,0.0812
929.00,0.0812
928.00,0.0811
927.00,0.0811
926.00,0.0811
925.00,0.0812
924.00,0.0815
923.00,0.0817
922.00,0.0820
921.00,0.0823
920.00,0.0826
919.00,0.0830
918.00,0.0834
917.00,0.0838
916.00,0.0841
915.00,0.0843
914.00,0.0844
913.00,0.0843
912.00,0.0843
911.00,0.0842
910.00,0.0841
909.00,0.0839
908.00,0.0836
907.00,0.0834
906.00,0.0831
905.00,0.0829
904.00,0.0827
903.00,0.0825
902.00,0.0822
901.00,0.0820
900.00,0.0818
899.00,0.0816
898.00,0.0815
897.00,0.0814
896.00,0.0812
895.00,0.0809
894.00,0.0807
893.00,0.0806
892.00,0.0804
891.00,0.0803
890.00,0.0801
889.00,0.0799
888.00,0.0798
887.00,0.0797
886.00,0.0797
885.00,0.0796
884.00,0.0795
883.00,0.0794
882.00,0.0792
881.00,0.0791
880.00,0.0791
879.00,0.0792
878.00,0.0792
877.00,0.0792
876.00,0.0792
875.00,0.0790
874.00,0.0788
873.00,0.0786
872.00,0.0785
871.00,0.0784
870.00,0.0784
869.00,0.0784
868.00,0.0785
867.00,0.0785
866.00,0.0784
865.00,0.0782
864.00,0.0781
863.00,0.0781
862.00,0.0781
861.00,0.0782
860.00,0.0782
859.00,0.0782
858.00,0.0780
857.00,0.0779
856.00,0.0778
855.00,0.0777
854.00,0.0777
853.00,0.0777
852.00,0.0776
851.00,0.0776
850.00,0.0777
849.00,0.0778
848.00,0.0778
847.00,0.0779
846.00,0.0778
845.00,0.0779
844.00,0.0780
843.00,0.0781
842.00,0.0781
841.00,0.0782
840.00,0.0783
839.00,0.0784
838.00,0.0785
837.00,0.0786
836.00,0.0786
835.00,0.0786
834.00,0.0786
833.00,0.0786
832.00,0.0787
831.00,0.0788
830.00,0.0791
829.00,0.0793
828.00,0.0795
827.00,0.0797
826.00,0.0798
825.00,0.0799
824.00,0.0800
823.00,0.0801
822.00,0.0802
821.00,0.0803
820.00,0.0805
819.00,0.0806
818.00,0.0807
817.00,0.0807
816.00,0.0808
815.00,0.0809
814.00,0.0810
813.00,0.0812
812.00,0.0814
811.00,0.0814
810.00,0.0815
809.00,0.0815
808.00,0.0817
807.00,0.0819
806.00,0.0823
805.00,0.0827
804.00,0.0831
803.00,0.0835
802.00,0.0838
801.00,0.0840
800.00,0.0842
799.00,0.0845
798.00,0.0848
797.00,0.0850
796.00,0.0851
795.00,0.0850
794.00,0.0848
793.00,0.0847
792.00,0.0846
791.00,0.0847
790.00,0.0848
789.00,0.0850
788.00,0.0851
787.00,0.0852
786.00,0.0853
785.00,0.0852
784.00,0.0852
783.00,0.0853
782.00,0.0854
781.00,0.0856
780.00,0.0859
779.00,0.0861
778.00,0.0861
777.00,0.0860
776.00,0.0859
775.00,0.0857
774.00,0.0855
773.00,0.0854
772.00,0.0852
771.00,0.0851
770.00,0.0852
769.00,0.0853
768.00,0.0856
767.00,0.0858
766.00,0.0860
765.00,0.0861
764.00,0.0861
763.00,0.0861
762.00,0.0859
761.00,0.0858
760.00,0.0859
759.00,0.0861
758.00,0.0864
757.00,0.0866
756.00,0.0869
755.00,0.0870
754.00,0.0869
753.00,0.0866
752.00,0.0864
751.00,0.0863
750.00,0.0865
749.00,0.0869
748.00,0.0873
747.00,0.0875
746.00,0.0874
745.00,0.0873
744.00,0.0872
743.00,0.0872
742.00,0.0872
741.00,0.0872
740.00,0.0873
739.00,0.0873
738.00,0.0873
737.00,0.0873
736.00,0.0873
735.00,0.0873
734.00,0.0871
733.00,0.0871
732.00,0.0871
731.00,0.0872
730.00,0.0873
729.00,0.0874
728.00,0.0875
727.00,0.0875
726.00,0.0875
725.00,0.0875
724.00,0.0877
723.00,0.0879
722.00,0.0880
721.00,0.0879
720.00,0.0878
719.00,0.0877
718.00,0.0877
717.00,0.0878
716.00,0.0879
715.00,0.0881
714.00,0.0882
713.00,0.0883
712.00,0.0884
711.00,0.0886
710.00,0.0889
709.00,0.0893
708.00,0.0898
707.00,0.0903
706.00,0.0908
705.00,0.0911
704.00,0.0915
703.00,0.0919
702.00,0.0923
701.00,0.0926
700.00,0.0927
699.00,0.0928
698.00,0.0928
697.00,0.0930
696.00,0.0933
695.00,0.0935
694.00,0.0937
693.00,0.0937
692.00,0.0937
691.00,0.0936
690.00,0.0935
689.00,0.0935
688.00,0.0937
687.00,0.0940
686.00,0.0944
685.00,0.0949
684.00,0.0953
683.00,0.0954
682.00,0.0952
681.00,0.0949
680.00,0.0947
679.00,0.0946
678.00,0.0944
677.00,0.0942
676.00,0.0942
675.00,0.0943
674.00,0.0947
673.00,0.0950
672.00,0.0950
671.00,0.0947
670.00,0.0943
669.00,0.0945
668.00,0.0954
667.00,0.0962
666.00,0.0965
665.00,0.0962
664.00,0.0958
663.00,0.0958
662.00,0.0960
661.00,0.0961
660.00,0.0962
659.00,0.0962
658.00,0.0963
657.00,0.0961
656.00,0.0967
655.00,0.0970
654.00,0.0972
653.00,0.0976
652.00,0.0976
651.00,0.0975
650.00,0.0971
