Created as New Dataset,Monday, April 03 2023
cm-1,A
4000.00,0.0312
3999.00,0.0312
3998.00,0.0312
3997.00,0.0312
3996.00,0.0312
3995.00,0.0311
3994.00,0.0311
3993.00,0.0310
3992.00,0.0310
3991.00,0.0310
3990.00,0.0310
3989.00,0.0310
3988.00,0.0310
3987.00,0.0309
3986.00,0.0309
3985.00,0.0309
3984.00,0.0309
3983.00,0.0309
3982.00,0.0309
3981.00,0.0309
3980.00,0.0309
3979.00,0.0309
3978.00,0.0309
3977.00,0.0308
3976.00,0.0308
3975.00,0.0307
3974.00,0.0307
3973.00,0.0307
3972.00,0.0308
3971.00,0.0308
3970.00,0.0308
3969.00,0.0308
3968.00,0.0308
3967.00,0.0307
3966.00,0.0306
3965.00,0.0306
3964.00,0.0306
3963.00,0.0307
3962.00,0.0308
3961.00,0.0307
3960.00,0.0306
3959.00,0.0306
3958.00,0.0305
3957.00,0.0305
3956.00,0.0305
3955.00,0.0304
3954.00,0.0303
3953.00,0.0303
3952.00,0.0303
3951.00,0.0303
3950.00,0.0304
3949.00,0.0305
3948.00,0.0305
3947.00,0.0304
3946.00,0.0303
3945.00,0.0302
3944.00,0.0302
3943.00,0.0302
3942.00,0.0301
3941.00,0.0301
3940.00,0.0301
3939.00,0.0302
3938.00,0.0303
3937.00,0.0302
3936.00,0.0302
3935.00,0.0301
3934.00,0.0301
3933.00,0.0301
3932.00,0.0300
3931.00,0.0300
3930.00,0.0300
3929.00,0.0300
3928.00,0.0300
3927.00,0.0300
3926.00,0.0300
3925.00,0.0300
3924.00,0.0300
3923.00,0.0299
3922.00,0.0298
3921.00,0.0298
3920.00,0.0298
3919.00,0.0298
3918.00,0.0299
3917.00,0.0299
3916.00,0.0299
3915.00,0.0299
3914.00,0.0299
3913.00,0.0300
3912.00,0.0300
3911.00,0.0300
3910.00,0.0299
3909.00,0.0297
3908.00,0.0295
3907.00,0.0293
3906.00,0.0291
3905.00,0.0290
3904.00,0.0290
3903.00,0.0289
3902.00,0.0289
3901.00,0.0291
3900.00,0.0293
3899.00,0.0294
3898.00,0.0293
3897.00,0.0293
3896.00,0.0293
3895.00,0.0293
3894.00,0.0293
3893.00,0.0294
3892.00,0.0294
3891.00,0.0293
3890.00,0.0290
3889.00,0.0287
3888.00,0.0288
3887.00,0.0289
3886.00,0.0290
3885.00,0.0289
3884.00,0.0287
3883.00,0.0287
3882.00,0.0289
3881.00,0.0291
3880.00,0.0291
3879.00,0.0289
3878.00,0.0288
3877.00,0.0290
3876.00,0.0292
3875.00,0.0292
3874.00,0.0289
3873.00,0.0286
3872.00,0.0285
3871.00,0.0287
3870.00,0.0288
3869.00,0.0286
3868.00,0.0284
3867.00,0.0285
3866.00,0.0288
3865.00,0.0290
3864.00,0.0291
3863.00,0.0290
3862.00,0.0290
3861.00,0.0290
3860.00,0.0290
3859.00,0.0288
3858.00,0.0284
3857.00,0.0278
3856.00,0.0273
3855.00,0.0273
3854.00,0.0278
3853.00,0.0280
3852.00,0.0278
3851.00,0.0279
3850.00,0.0284
3849.00,0.0288
3848.00,0.0289
3847.00,0.0289
3846.00,0.0288
3845.00,0.0287
3844.00,0.0286
3843.00,0.0284
3842.00,0.0282
3841.00,0.0282
3840.00,0.0282
3839.00,0.0283
3838.00,0.0283
3837.00,0.0282
3836.00,0.0281
3835.00,0.0282
3834.00,0.0284
3833.00,0.0286
3832.00,0.0288
3831.00,0.0287
3830.00,0.0287
3829.00,0.0287
3828.00,0.0287
3827.00,0.0287
3826.00,0.0285
3825.00,0.0282
3824.00,0.0280
3823.00,0.0282
3822.00,0.0284
3821.00,0.0283
3820.00,0.0279
3819.00,0.0276
3818.00,0.0278
3817.00,0.0282
3816.00,0.0285
3815.00,0.0285
3814.00,0.0285
3813.00,0.0286
3812.00,0.0286
3811.00,0.0285
3810.00,0.0282
3809.00,0.0281
3808.00,0.0282
3807.00,0.0283
3806.00,0.0281
3805.00,0.0279
3804.00,0.0280
3803.00,0.0282
3802.00,0.0285
3801.00,0.0283
3800.00,0.0280
3799.00,0.0279
3798.00,0.0281
3797.00,0.0283
3796.00,0.0283
3795.00,0.0283
3794.00,0.0282
3793.00,0.0284
3792.00,0.0285
3791.00,0.0285
3790.00,0.0285
3789.00,0.0285
3788.00,0.0285
3787.00,0.0285
3786.00,0.0285
3785.00,0.0285
3784.00,0.0284
3783.00,0.0283
3782.00,0.0282
3781.00,0.0282
3780.00,0.0282
3779.00,0.0282
3778.00,0.0280
3777.00,0.0280
3776.00,0.0281
3775.00,0.0281
3774.00,0.0280
3773.00,0.0278
3772.00,0.0278
3771.00,0.0278
3770.00,0.0277
3769.00,0.0275
3768.00,0.0274
3767.00,0.0276
3766.00,0.0277
3765.00,0.0278
3764.00,0.0276
3763.00,0.0275
3762.00,0.0276
3761.00,0.0276
3760.00,0.0277
3759.00,0.0276
3758.00,0.0274
3757.00,0.0272
3756.00,0.0270
3755.00,0.0267
3754.00,0.0265
3753.00,0.0264
3752.00,0.0265
3751.00,0.0267
3750.00,0.0267
3749.00,0.0265
3748.00,0.0263
3747.00,0.0263
3746.00,0.0266
3745.00,0.0268
3744.00,0.0266
3743.00,0.0263
3742.00,0.0263
3741.00,0.0268
3740.00,0.0270
3739.00,0.0269
3738.00,0.0267
3737.00,0.0266
3736.00,0.0266
3735.00,0.0264
3734.00,0.0263
3733.00,0.0263
3732.00,0.0264
3731.00,0.0266
3730.00,0.0267
3729.00,0.0269
3728.00,0.0270
3727.00,0.0270
3726.00,0.0269
3725.00,0.0267
3724.00,0.0266
3723.00,0.0265
3722.00,0.0266
3721.00,0.0267
3720.00,0.0267
3719.00,0.0268
3718.00,0.0268
3717.00,0.0267
3716.00,0.0265
3715.00,0.0263
3714.00,0.0263
3713.00,0.0263
3712.00,0.0265
3711.00,0.0264
3710.00,0.0263
3709.00,0.0263
3708.00,0.0264
3707.00,0.0267
3706.00,0.0269
3705.00,0.0270
3704.00,0.0270
3703.00,0.0269
3702.00,0.0268
3701.00,0.0267
3700.00,0.0267
3699.00,0.0267
3698.00,0.0269
3697.00,0.0270
3696.00,0.0269
3695.00,0.0267
3694.00,0.0265
3693.00,0.0262
3692.00,0.0260
3691.00,0.0260
3690.00,0.0262
3689.00,0.0263
3688.00,0.0261
3687.00,0.0260
3686.00,0.0261
3685.00,0.0264
3684.00,0.0265
3683.00,0.0264
3682.00,0.0262
3681.00,0.0260
3680.00,0.0256
3679.00,0.0252
3678.00,0.0248
3677.00,0.0248
3676.00,0.0249
3675.00,0.0248
3674.00,0.0244
3673.00,0.0244
3672.00,0.0248
3671.00,0.0253
3670.00,0.0257
3669.00,0.0256
3668.00,0.0255
3667.00,0.0257
3666.00,0.0260
3665.00,0.0262
3664.00,0.0263
3663.00,0.0263
3662.00,0.0263
3661.00,0.0263
3660.00,0.0262
3659.00,0.0262
3658.00,0.0263
3657.00,0.0264
3656.00,0.0264
3655.00,0.0262
3654.00,0.0260
3653.00,0.0258
3652.00,0.0257
3651.00,0.0256
3650.00,0.0257
3649.00,0.0259
3648.00,0.0259
3647.00,0.0259
3646.00,0.0261
3645.00,0.0265
3644.00,0.0269
3643.00,0.0273
3642.00,0.0275
3641.00,0.0276
3640.00,0.0277
3639.00,0.0277
3638.00,0.0278
3637.00,0.0278
3636.00,0.0278
3635.00,0.0278
3634.00,0.0278
3633.00,0.0275
3632.00,0.0272
3631.00,0.0271
3630.00,0.0274
3629.00,0.0278
3628.00,0.0279
3627.00,0.0278
3626.00,0.0280
3625.00,0.0283
3624.00,0.0285
3623.00,0.0284
3622.00,0.0284
3621.00,0.0285
3620.00,0.0287
3619.00,0.0288
3618.00,0.0288
3617.00,0.0287
3616.00,0.0289
3615.00,0.0292
3614.00,0.0293
3613.00,0.0293
3612.00,0.0292
3611.00,0.0292
3610.00,0.0294
3609.00,0.0298
3608.00,0.0301
3607.00,0.0301
3606.00,0.0302
3605.00,0.0302
3604.00,0.0304
3603.00,0.0306
3602.00,0.0308
3601.00,0.0310
3600.00,0.0311
3599.00,0.0310
3598.00,0.0309
3597.00,0.0308
3596.00,0.0309
3595.00,0.0310
3594.00,0.0311
3593.00,0.0310
3592.00,0.0310
3591.00,0.0309
3590.00,0.0309
3589.00,0.0311
3588.00,0.0314
3587.00,0.0315
3586.00,0.0316
3585.00,0.0317
3584.00,0.0319
3583.00,0.0321
3582.00,0.0323
3581.00,0.0323
3580.00,0.0324
3579.00,0.0325
3578.00,0.0326
3577.00,0.0327
3576.00,0.0329
3575.00,0.0330
3574.00,0.0331
3573.00,0.0331
3572.00,0.0329
3571.00,0.0327
3570.00,0.0324
3569.00,0.0324
3568.00,0.0327
3567.00,0.0331
3566.00,0.0333
3565.00,0.0333
3564.00,0.0334
3563.00,0.0335
3562.00,0.0337
3561.00,0.0339
3560.00,0.0340
3559.00,0.0341
3558.00,0.0343
3557.00,0.0344
3556.00,0.0345
3555.00,0.0347
3554.00,0.0348
3553.00,0.0349
3552.00,0.0350
3551.00,0.0350
3550.00,0.0349
3549.00,0.0349
3548.00,0.0350
3547.00,0.0352
3546.00,0.0354
3545.00,0.0356
3544.00,0.0357
3543.00,0.0357
3542.00,0.0358
3541.00,0.0358
3540.00,0.0358
3539.00,0.0358
3538.00,0.0358
3537.00,0.0359
3536.00,0.0359
3535.00,0.0361
3534.00,0.0362
3533.00,0.0363
3532.00,0.0364
3531.00,0.0364
3530.00,0.0364
3529.00,0.0364
3528.00,0.0363
3527.00,0.0363
3526.00,0.0365
3525.00,0.0367
3524.00,0.0369
3523.00,0.0371
3522.00,0.0372
3521.00,0.0372
3520.00,0.0372
3519.00,0.0371
3518.00,0.0371
3517.00,0.0372
3516.00,0.0372
3515.00,0.0373
3514.00,0.0374
3513.00,0.0375
3512.00,0.0377
3511.00,0.0378
3510.00,0.0378
3509.00,0.0378
3508.00,0.0378
3507.00,0.0378
3506.00,0.0378
3505.00,0.0380
3504.00,0.0381
3503.00,0.0383
3502.00,0.0384
3501.00,0.0384
3500.00,0.0384
3499.00,0.0385
3498.00,0.0387
3497.00,0.0388
3496.00,0.0389
3495.00,0.0390
3494.00,0.0390
3493.00,0.0390
3492.00,0.0390
3491.00,0.0390
3490.00,0.0390
3489.00,0.0390
3488.00,0.0391
3487.00,0.0392
3486.00,0.0392
3485.00,0.0392
3484.00,0.0392
3483.00,0.0393
3482.00,0.0394
3481.00,0.0395
3480.00,0.0396
3479.00,0.0396
3478.00,0.0397
3477.00,0.0398
3476.00,0.0399
3475.00,0.0400
3474.00,0.0401
3473.00,0.0402
3472.00,0.0403
3471.00,0.0404
3470.00,0.0404
3469.00,0.0405
3468.00,0.0405
3467.00,0.0406
3466.00,0.0407
3465.00,0.0407
3464.00,0.0408
3463.00,0.0407
3462.00,0.0406
3461.00,0.0406
3460.00,0.0407
3459.00,0.0409
3458.00,0.0410
3457.00,0.0411
3456.00,0.0411
3455.00,0.0411
3454.00,0.0411
3453.00,0.0412
3452.00,0.0412
3451.00,0.0413
3450.00,0.0413
3449.00,0.0414
3448.00,0.0415
3447.00,0.0415
3446.00,0.0416
3445.00,0.0416
3444.00,0.0417
3443.00,0.0418
3442.00,0.0418
3441.00,0.0418
3440.00,0.0417
3439.00,0.0417
3438.00,0.0418
3437.00,0.0419
3436.00,0.0419
3435.00,0.0420
3434.00,0.0421
3433.00,0.0422
3432.00,0.0423
3431.00,0.0424
3430.00,0.0424
3429.00,0.0424
3428.00,0.0424
3427.00,0.0424
3426.00,0.0425
3425.00,0.0426
3424.00,0.0427
3423.00,0.0427
3422.00,0.0428
3421.00,0.0428
3420.00,0.0429
3419.00,0.0430
3418.00,0.0430
3417.00,0.0431
3416.00,0.0431
3415.00,0.0430
3414.00,0.0430
3413.00,0.0431
3412.00,0.0431
3411.00,0.0432
3410.00,0.0433
3409.00,0.0434
3408.00,0.0435
3407.00,0.0435
3406.00,0.0436
3405.00,0.0436
3404.00,0.0436
3403.00,0.0436
3402.00,0.0436
3401.00,0.0436
3400.00,0.0437
3399.00,0.0438
3398.00,0.0438
3397.00,0.0438
3396.00,0.0437
3395.00,0.0437
3394.00,0.0438
3393.00,0.0439
3392.00,0.0440
3391.00,0.0441
3390.00,0.0441
3389.00,0.0441
3388.00,0.0441
3387.00,0.0440
3386.00,0.0440
3385.00,0.0441
3384.00,0.0442
3383.00,0.0443
3382.00,0.0443
3381.00,0.0444
3380.00,0.0444
3379.00,0.0445
3378.00,0.0445
3377.00,0.0445
3376.00,0.0445
3375.00,0.0445
3374.00,0.0445
3373.00,0.0445
3372.00,0.0445
3371.00,0.0445
3370.00,0.0446
3369.00,0.0446
3368.00,0.0447
3367.00,0.0447
3366.00,0.0447
3365.00,0.0447
3364.00,0.0446
3363.00,0.0447
3362.00,0.0448
3361.00,0.0450
3360.00,0.0451
3359.00,0.0451
3358.00,0.0451
3357.00,0.0451
3356.00,0.0451
3355.00,0.0452
3354.00,0.0452
3353.00,0.0452
3352.00,0.0452
3351.00,0.0452
3350.00,0.0453
3349.00,0.0453
3348.00,0.0453
3347.00,0.0453
3346.00,0.0453
3345.00,0.0453
3344.00,0.0453
3343.00,0.0453
3342.00,0.0453
3341.00,0.0453
3340.00,0.0454
3339.00,0.0455
3338.00,0.0455
3337.00,0.0455
3336.00,0.0454
3335.00,0.0454
3334.00,0.0454
3333.00,0.0454
3332.00,0.0454
3331.00,0.0454
3330.00,0.0453
3329.00,0.0453
3328.00,0.0453
3327.00,0.0454
3326.00,0.0455
3325.00,0.0456
3324.00,0.0457
3323.00,0.0457
3322.00,0.0457
3321.00,0.0457
3320.00,0.0457
3319.00,0.0457
3318.00,0.0457
3317.00,0.0457
3316.00,0.0457
3315.00,0.0457
3314.00,0.0457
3313.00,0.0457
3312.00,0.0457
3311.00,0.0457
3310.00,0.0458
3309.00,0.0459
3308.00,0.0460
3307.00,0.0460
3306.00,0.0459
3305.00,0.0459
3304.00,0.0458
3303.00,0.0458
3302.00,0.0459
3301.00,0.0459
3300.00,0.0459
3299.00,0.0459
3298.00,0.0460
3297.00,0.0460
3296.00,0.0461
3295.00,0.0462
3294.00,0.0462
3293.00,0.0461
3292.00,0.0461
3291.00,0.0460
3290.00,0.0460
3289.00,0.0460
3288.00,0.0461
3287.00,0.0461
3286.00,0.0461
3285.00,0.0462
3284.00,0.0462
3283.00,0.0462
3282.00,0.0462
3281.00,0.0462
3280.00,0.0462
3279.00,0.0462
3278.00,0.0462
3277.00,0.0462
3276.00,0.0463
3275.00,0.0463
3274.00,0.0463
3273.00,0.0463
3272.00,0.0463
3271.00,0.0464
3270.00,0.0464
3269.00,0.0465
3268.00,0.0465
3267.00,0.0465
3266.00,0.0464
3265.00,0.0463
3264.00,0.0463
3263.00,0.0462
3262.00,0.0463
3261.00,0.0463
3260.00,0.0464
3259.00,0.0464
3258.00,0.0464
3257.00,0.0464
3256.00,0.0463
3255.00,0.0463
3254.00,0.0464
3253.00,0.0465
3252.00,0.0465
3251.00,0.0465
3250.00,0.0465
3249.00,0.0464
3248.00,0.0464
3247.00,0.0464
3246.00,0.0464
3245.00,0.0465
3244.00,0.0465
3243.00,0.0465
3242.00,0.0465
3241.00,0.0464
3240.00,0.0464
3239.00,0.0465
3238.00,0.0466
3237.00,0.0466
3236.00,0.0467
3235.00,0.0468
3234.00,0.0468
3233.00,0.0468
3232.00,0.0468
3231.00,0.0467
3230.00,0.0466
3229.00,0.0466
3228.00,0.0465
3227.00,0.0466
3226.00,0.0466
3225.00,0.0466
3224.00,0.0466
3223.00,0.0466
3222.00,0.0467
3221.00,0.0467
3220.00,0.0466
3219.00,0.0466
3218.00,0.0466
3217.00,0.0466
3216.00,0.0467
3215.00,0.0468
3214.00,0.0468
3213.00,0.0468
3212.00,0.0467
3211.00,0.0466
3210.00,0.0465
3209.00,0.0465
3208.00,0.0465
3207.00,0.0466
3206.00,0.0466
3205.00,0.0467
3204.00,0.0467
3203.00,0.0467
3202.00,0.0467
3201.00,0.0467
3200.00,0.0467
3199.00,0.0467
3198.00,0.0467
3197.00,0.0467
3196.00,0.0467
3195.00,0.0466
3194.00,0.0466
3193.00,0.0466
3192.00,0.0466
3191.00,0.0465
3190.00,0.0465
3189.00,0.0464
3188.00,0.0464
3187.00,0.0464
3186.00,0.0464
3185.00,0.0465
3184.00,0.0465
3183.00,0.0466
3182.00,0.0466
3181.00,0.0466
3180.00,0.0466
3179.00,0.0465
3178.00,0.0464
3177.00,0.0463
3176.00,0.0463
3175.00,0.0463
3174.00,0.0464
3173.00,0.0464
3172.00,0.0464
3171.00,0.0463
3170.00,0.0463
3169.00,0.0462
3168.00,0.0462
3167.00,0.0463
3166.00,0.0463
3165.00,0.0464
3164.00,0.0465
3163.00,0.0465
3162.00,0.0465
3161.00,0.0464
3160.00,0.0463
3159.00,0.0461
3158.00,0.0460
3157.00,0.0460
3156.00,0.0460
3155.00,0.0461
3154.00,0.0462
3153.00,0.0462
3152.00,0.0462
3151.00,0.0461
3150.00,0.0461
3149.00,0.0461
3148.00,0.0461
3147.00,0.0460
3146.00,0.0460
3145.00,0.0460
3144.00,0.0460
3143.00,0.0460
3142.00,0.0460
3141.00,0.0460
3140.00,0.0459
3139.00,0.0460
3138.00,0.0460
3137.00,0.0460
3136.00,0.0460
3135.00,0.0460
3134.00,0.0459
3133.00,0.0459
3132.00,0.0459
3131.00,0.0459
3130.00,0.0459
3129.00,0.0459
3128.00,0.0459
3127.00,0.0458
3126.00,0.0458
3125.00,0.0457
3124.00,0.0457
3123.00,0.0457
3122.00,0.0457
3121.00,0.0456
3120.00,0.0456
3119.00,0.0456
3118.00,0.0456
3117.00,0.0456
3116.00,0.0456
3115.00,0.0456
3114.00,0.0456
3113.00,0.0456
3112.00,0.0455
3111.00,0.0455
3110.00,0.0454
3109.00,0.0454
3108.00,0.0454
3107.00,0.0454
3106.00,0.0455
3105.00,0.0455
3104.00,0.0455
3103.00,0.0455
3102.00,0.0454
3101.00,0.0454
3100.00,0.0453
3099.00,0.0453
3098.00,0.0452
3097.00,0.0452
3096.00,0.0453
3095.00,0.0454
3094.00,0.0454
3093.00,0.0454
3092.00,0.0454
3091.00,0.0453
3090.00,0.0452
3089.00,0.0451
3088.00,0.0450
3087.00,0.0450
3086.00,0.0451
3085.00,0.0451
3084.00,0.0452
3083.00,0.0452
3082.00,0.0452
3081.00,0.0452
3080.00,0.0452
3079.00,0.0452
3078.00,0.0452
3077.00,0.0451
3076.00,0.0451
3075.00,0.0451
3074.00,0.0451
3073.00,0.0451
3072.00,0.0451
3071.00,0.0451
3070.00,0.0451
3069.00,0.0450
3068.00,0.0450
3067.00,0.0450
3066.00,0.0450
3065.00,0.0449
3064.00,0.0448
3063.00,0.0448
3062.00,0.0448
3061.00,0.0448
3060.00,0.0448
3059.00,0.0448
3058.00,0.0448
3057.00,0.0448
3056.00,0.0448
3055.00,0.0448
3054.00,0.0447
3053.00,0.0447
3052.00,0.0446
3051.00,0.0446
3050.00,0.0447
3049.00,0.0447
3048.00,0.0447
3047.00,0.0447
3046.00,0.0446
3045.00,0.0446
3044.00,0.0445
3043.00,0.0445
3042.00,0.0444
3041.00,0.0443
3040.00,0.0443
3039.00,0.0443
3038.00,0.0443
3037.00,0.0443
3036.00,0.0444
3035.00,0.0444
3034.00,0.0443
3033.00,0.0443
3032.00,0.0443
3031.00,0.0443
3030.00,0.0442
3029.00,0.0441
3028.00,0.0440
3027.00,0.0440
3026.00,0.0440
3025.00,0.0439
3024.00,0.0439
3023.00,0.0439
3022.00,0.0439
3021.00,0.0439
3020.00,0.0438
3019.00,0.0438
3018.00,0.0437
3017.00,0.0436
3016.00,0.0436
3015.00,0.0436
3014.00,0.0435
3013.00,0.0434
3012.00,0.0433
3011.00,0.0432
3010.00,0.0431
3009.00,0.0429
3008.00,0.0427
3007.00,0.0426
3006.00,0.0425
3005.00,0.0424
3004.00,0.0423
3003.00,0.0421
3002.00,0.0420
3001.00,0.0418
3000.00,0.0416
2999.00,0.0415
2998.00,0.0414
2997.00,0.0412
2996.00,0.0412
2995.00,0.0411
2994.00,0.0410
2993.00,0.0410
2992.00,0.0409
2991.00,0.0408
2990.00,0.0407
2989.00,0.0406
2988.00,0.0405
2987.00,0.0403
2986.00,0.0400
2985.00,0.0396
2984.00,0.0392
2983.00,0.0389
2982.00,0.0387
2981.00,0.0387
2980.00,0.0388
2979.00,0.0390
2978.00,0.0393
2977.00,0.0395
2976.00,0.0397
2975.00,0.0397
2974.00,0.0397
2973.00,0.0396
2972.00,0.0396
2971.00,0.0396
2970.00,0.0397
2969.00,0.0400
2968.00,0.0402
2967.00,0.0403
2966.00,0.0404
2965.00,0.0404
2964.00,0.0405
2963.00,0.0406
2962.00,0.0408
2961.00,0.0408
2960.00,0.0409
2959.00,0.0409
2958.00,0.0409
2957.00,0.0409
2956.00,0.0410
2955.00,0.0412
2954.00,0.0413
2953.00,0.0414
2952.00,0.0415
2951.00,0.0415
2950.00,0.0416
2949.00,0.0416
2948.00,0.0417
2947.00,0.0417
2946.00,0.0417
2945.00,0.0418
2944.00,0.0419
2943.00,0.0420
2942.00,0.0421
2941.00,0.0422
2940.00,0.0422
2939.00,0.0422
2938.00,0.0422
2937.00,0.0422
2936.00,0.0423
2935.00,0.0423
2934.00,0.0424
2933.00,0.0424
2932.00,0.0424
2931.00,0.0425
2930.00,0.0425
2929.00,0.0425
2928.00,0.0425
2927.00,0.0426
2926.00,0.0425
2925.00,0.0425
2924.00,0.0425
2923.00,0.0424
2922.00,0.0423
2921.00,0.0422
2920.00,0.0421
2919.00,0.0420
2918.00,0.0419
2917.00,0.0418
2916.00,0.0417
2915.00,0.0417
2914.00,0.0417
2913.00,0.0417
2912.00,0.0417
2911.00,0.0417
2910.00,0.0417
2909.00,0.0416
2908.00,0.0415
2907.00,0.0414
2906.00,0.0414
2905.00,0.0413
2904.00,0.0413
2903.00,0.0412
2902.00,0.0411
2901.00,0.0411
2900.00,0.0411
2899.00,0.0410
2898.00,0.0410
2897.00,0.0410
2896.00,0.0409
2895.00,0.0409
2894.00,0.0408
2893.00,0.0408
2892.00,0.0407
2891.00,0.0407
2890.00,0.0407
2889.00,0.0406
2888.00,0.0406
2887.00,0.0406
2886.00,0.0405
2885.00,0.0404
2884.00,0.0404
2883.00,0.0403
2882.00,0.0404
2881.00,0.0404
2880.00,0.0404
2879.00,0.0405
2878.00,0.0405
2877.00,0.0406
2876.00,0.0406
2875.00,0.0406
2874.00,0.0406
2873.00,0.0405
2872.00,0.0405
2871.00,0.0405
2870.00,0.0405
2869.00,0.0405
2868.00,0.0405
2867.00,0.0405
2866.00,0.0405
2865.00,0.0405
2864.00,0.0405
2863.00,0.0406
2862.00,0.0406
2861.00,0.0407
2860.00,0.0408
2859.00,0.0409
2858.00,0.0410
2857.00,0.0411
2856.00,0.0411
2855.00,0.0410
2854.00,0.0409
2853.00,0.0408
2852.00,0.0408
2851.00,0.0408
2850.00,0.0408
2849.00,0.0407
2848.00,0.0407
2847.00,0.0406
2846.00,0.0406
2845.00,0.0405
2844.00,0.0405
2843.00,0.0404
2842.00,0.0404
2841.00,0.0403
2840.00,0.0402
2839.00,0.0401
2838.00,0.0401
2837.00,0.0401
2836.00,0.0401
2835.00,0.0402
2834.00,0.0402
2833.00,0.0401
2832.00,0.0400
2831.00,0.0399
2830.00,0.0398
2829.00,0.0398
2828.00,0.0398
2827.00,0.0398
2826.00,0.0398
2825.00,0.0398
2824.00,0.0398
2823.00,0.0398
2822.00,0.0397
2821.00,0.0396
2820.00,0.0395
2819.00,0.0395
2818.00,0.0394
2817.00,0.0394
2816.00,0.0394
2815.00,0.0394
2814.00,0.0393
2813.00,0.0393
2812.00,0.0393
2811.00,0.0392
2810.00,0.0392
2809.00,0.0392
2808.00,0.0392
2807.00,0.0392
2806.00,0.0392
2805.00,0.0392
2804.00,0.0392
2803.00,0.0391
2802.00,0.0391
2801.00,0.0391
2800.00,0.0391
2799.00,0.0391
2798.00,0.0390
2797.00,0.0390
2796.00,0.0390
2795.00,0.0389
2794.00,0.0389
2793.00,0.0388
2792.00,0.0388
2791.00,0.0388
2790.00,0.0388
2789.00,0.0388
2788.00,0.0388
2787.00,0.0387
2786.00,0.0387
2785.00,0.0387
2784.00,0.0386
2783.00,0.0386
2782.00,0.0385
2781.00,0.0384
2780.00,0.0383
2779.00,0.0383
2778.00,0.0383
2777.00,0.0384
2776.00,0.0384
2775.00,0.0384
2774.00,0.0383
2773.00,0.0383
2772.00,0.0382
2771.00,0.0382
2770.00,0.0381
2769.00,0.0380
2768.00,0.0380
2767.00,0.0380
2766.00,0.0380
2765.00,0.0380
2764.00,0.0380
2763.00,0.0380
2762.00,0.0379
2761.00,0.0379
2760.00,0.0379
2759.00,0.0379
2758.00,0.0379
2757.00,0.0379
2756.00,0.0378
2755.00,0.0378
2754.00,0.0378
2753.00,0.0377
2752.00,0.0377
2751.00,0.0377
2750.00,0.0378
2749.00,0.0378
2748.00,0.0377
2747.00,0.0377
2746.00,0.0377
2745.00,0.0377
2744.00,0.0376
2743.00,0.0376
2742.00,0.0376
2741.00,0.0376
2740.00,0.0376
2739.00,0.0375
2738.00,0.0374
2737.00,0.0373
2736.00,0.0373
2735.00,0.0373
2734.00,0.0373
2733.00,0.0374
2732.00,0.0373
2731.00,0.0373
2730.00,0.0372
2729.00,0.0372
2728.00,0.0371
2727.00,0.0371
2726.00,0.0371
2725.00,0.0371
2724.00,0.0371
2723.00,0.0370
2722.00,0.0370
2721.00,0.0370
2720.00,0.0370
2719.00,0.0370
2718.00,0.0370
2717.00,0.0371
2716.00,0.0371
2715.00,0.0370
2714.00,0.0370
2713.00,0.0369
2712.00,0.0369
2711.00,0.0369
2710.00,0.0368
2709.00,0.0368
2708.00,0.0368
2707.00,0.0367
2706.00,0.0367
2705.00,0.0367
2704.00,0.0367
2703.00,0.0366
2702.00,0.0366
2701.00,0.0365
2700.00,0.0365
2699.00,0.0365
2698.00,0.0365
2697.00,0.0365
2696.00,0.0364
2695.00,0.0364
2694.00,0.0364
2693.00,0.0364
2692.00,0.0365
2691.00,0.0365
2690.00,0.0364
2689.00,0.0364
2688.00,0.0364
2687.00,0.0363
2686.00,0.0363
2685.00,0.0363
2684.00,0.0363
2683.00,0.0363
2682.00,0.0363
2681.00,0.0362
2680.00,0.0362
2679.00,0.0361
2678.00,0.0361
2677.00,0.0360
2676.00,0.0360
2675.00,0.0360
2674.00,0.0360
2673.00,0.0360
2672.00,0.0359
2671.00,0.0359
2670.00,0.0359
2669.00,0.0358
2668.00,0.0358
2667.00,0.0358
2666.00,0.0358
2665.00,0.0358
2664.00,0.0359
2663.00,0.0359
2662.00,0.0359
2661.00,0.0359
2660.00,0.0359
2659.00,0.0359
2658.00,0.0359
2657.00,0.0359
2656.00,0.0358
2655.00,0.0358
2654.00,0.0358
2653.00,0.0358
2652.00,0.0359
2651.00,0.0359
2650.00,0.0359
2649.00,0.0359
2648.00,0.0359
2647.00,0.0358
2646.00,0.0357
2645.00,0.0357
2644.00,0.0357
2643.00,0.0358
2642.00,0.0358
2641.00,0.0358
2640.00,0.0358
2639.00,0.0358
2638.00,0.0358
2637.00,0.0357
2636.00,0.0357
2635.00,0.0357
2634.00,0.0357
2633.00,0.0358
2632.00,0.0358
2631.00,0.0358
2630.00,0.0357
2629.00,0.0357
2628.00,0.0356
2627.00,0.0355
2626.00,0.0355
2625.00,0.0356
2624.00,0.0357
2623.00,0.0357
2622.00,0.0358
2621.00,0.0358
2620.00,0.0358
2619.00,0.0358
2618.00,0.0357
2617.00,0.0357
2616.00,0.0357
2615.00,0.0357
2614.00,0.0356
2613.00,0.0356
2612.00,0.0357
2611.00,0.0357
2610.00,0.0357
2609.00,0.0356
2608.00,0.0355
2607.00,0.0355
2606.00,0.0356
2605.00,0.0356
2604.00,0.0357
2603.00,0.0357
2602.00,0.0357
2601.00,0.0357
2600.00,0.0356
2599.00,0.0356
2598.00,0.0355
2597.00,0.0355
2596.00,0.0354
2595.00,0.0354
2594.00,0.0354
2593.00,0.0354
2592.00,0.0355
2591.00,0.0355
2590.00,0.0355
2589.00,0.0355
2588.00,0.0355
2587.00,0.0354
2586.00,0.0354
2585.00,0.0353
2584.00,0.0353
2583.00,0.0353
2582.00,0.0353
2581.00,0.0354
2580.00,0.0354
2579.00,0.0354
2578.00,0.0354
2577.00,0.0353
2576.00,0.0352
2575.00,0.0352
2574.00,0.0352
2573.00,0.0352
2572.00,0.0352
2571.00,0.0352
2570.00,0.0351
2569.00,0.0351
2568.00,0.0352
2567.00,0.0353
2566.00,0.0354
2565.00,0.0354
2564.00,0.0354
2563.00,0.0353
2562.00,0.0354
2561.00,0.0354
2560.00,0.0354
2559.00,0.0353
2558.00,0.0353
2557.00,0.0353
2556.00,0.0354
2555.00,0.0354
2554.00,0.0353
2553.00,0.0353
2552.00,0.0351
2551.00,0.0350
2550.00,0.0349
2549.00,0.0348
2548.00,0.0348
2547.00,0.0348
2546.00,0.0348
2545.00,0.0349
2544.00,0.0349
2543.00,0.0349
2542.00,0.0349
2541.00,0.0348
2540.00,0.0346
2539.00,0.0345
2538.00,0.0344
2537.00,0.0344
2536.00,0.0344
2535.00,0.0344
2534.00,0.0345
2533.00,0.0346
2532.00,0.0347
2531.00,0.0347
2530.00,0.0347
2529.00,0.0346
2528.00,0.0346
2527.00,0.0346
2526.00,0.0346
2525.00,0.0345
2524.00,0.0344
2523.00,0.0344
2522.00,0.0344
2521.00,0.0344
2520.00,0.0344
2519.00,0.0344
2518.00,0.0345
2517.00,0.0346
2516.00,0.0347
2515.00,0.0346
2514.00,0.0345
2513.00,0.0344
2512.00,0.0344
2511.00,0.0344
2510.00,0.0345
2509.00,0.0345
2508.00,0.0345
2507.00,0.0345
2506.00,0.0345
2505.00,0.0344
2504.00,0.0344
2503.00,0.0343
2502.00,0.0344
2501.00,0.0344
2500.00,0.0345
2499.00,0.0345
2498.00,0.0345
2497.00,0.0345
2496.00,0.0345
2495.00,0.0345
2494.00,0.0345
2493.00,0.0346
2492.00,0.0346
2491.00,0.0345
2490.00,0.0345
2489.00,0.0345
2488.00,0.0345
2487.00,0.0345
2486.00,0.0344
2485.00,0.0343
2484.00,0.0342
2483.00,0.0341
2482.00,0.0342
2481.00,0.0343
2480.00,0.0343
2479.00,0.0343
2478.00,0.0343
2477.00,0.0342
2476.00,0.0341
2475.00,0.0341
2474.00,0.0341
2473.00,0.0341
2472.00,0.0341
2471.00,0.0341
2470.00,0.0341
2469.00,0.0341
2468.00,0.0340
2467.00,0.0340
2466.00,0.0339
2465.00,0.0339
2464.00,0.0339
2463.00,0.0339
2462.00,0.0339
2461.00,0.0339
2460.00,0.0340
2459.00,0.0340
2458.00,0.0340
2457.00,0.0340
2456.00,0.0340
2455.00,0.0340
2454.00,0.0341
2453.00,0.0342
2452.00,0.0342
2451.00,0.0342
2450.00,0.0341
2449.00,0.0340
2448.00,0.0339
2447.00,0.0339
2446.00,0.0338
2445.00,0.0338
2444.00,0.0337
2443.00,0.0336
2442.00,0.0336
2441.00,0.0336
2440.00,0.0337
2439.00,0.0337
2438.00,0.0337
2437.00,0.0337
2436.00,0.0336
2435.00,0.0336
2434.00,0.0335
2433.00,0.0335
2432.00,0.0335
2431.00,0.0336
2430.00,0.0336
2429.00,0.0336
2428.00,0.0336
2427.00,0.0336
2426.00,0.0335
2425.00,0.0335
2424.00,0.0334
2423.00,0.0334
2422.00,0.0334
2421.00,0.0333
2420.00,0.0333
2419.00,0.0333
2418.00,0.0333
2417.00,0.0333
2416.00,0.0332
2415.00,0.0332
2414.00,0.0332
2413.00,0.0332
2412.00,0.0332
2411.00,0.0332
2410.00,0.0333
2409.00,0.0333
2408.00,0.0333
2407.00,0.0333
2406.00,0.0332
2405.00,0.0332
2404.00,0.0331
2403.00,0.0330
2402.00,0.0330
2401.00,0.0329
2400.00,0.0329
2399.00,0.0329
2398.00,0.0329
2397.00,0.0328
2396.00,0.0327
2395.00,0.0327
2394.00,0.0327
2393.00,0.0327
2392.00,0.0327
2391.00,0.0327
2390.00,0.0326
2389.00,0.0326
2388.00,0.0326
2387.00,0.0326
2386.00,0.0326
2385.00,0.0325
2384.00,0.0325
2383.00,0.0324
2382.00,0.0325
2381.00,0.0326
2380.00,0.0327
2379.00,0.0327
2378.00,0.0326
2377.00,0.0324
2376.00,0.0323
2375.00,0.0323
2374.00,0.0323
2373.00,0.0324
2372.00,0.0324
2371.00,0.0324
2370.00,0.0322
2369.00,0.0320
2368.00,0.0317
2367.00,0.0317
2366.00,0.0319
2365.00,0.0322
2364.00,0.0322
2363.00,0.0321
2362.00,0.0319
2361.00,0.0319
2360.00,0.0320
2359.00,0.0321
2358.00,0.0321
2357.00,0.0321
2356.00,0.0319
2355.00,0.0317
2354.00,0.0314
2353.00,0.0314
2352.00,0.0315
2351.00,0.0317
2350.00,0.0319
2349.00,0.0320
2348.00,0.0319
2347.00,0.0316
2346.00,0.0313
2345.00,0.0312
2344.00,0.0314
2343.00,0.0316
2342.00,0.0318
2341.00,0.0319
2340.00,0.0319
2339.00,0.0317
2338.00,0.0315
2337.00,0.0314
2336.00,0.0314
2335.00,0.0315
2334.00,0.0317
2333.00,0.0317
2332.00,0.0315
2331.00,0.0313
2330.00,0.0312
2329.00,0.0312
2328.00,0.0313
2327.00,0.0315
2326.00,0.0316
2325.00,0.0316
2324.00,0.0316
2323.00,0.0316
2322.00,0.0315
2321.00,0.0315
2320.00,0.0314
2319.00,0.0314
2318.00,0.0313
2317.00,0.0313
2316.00,0.0314
2315.00,0.0314
2314.00,0.0314
2313.00,0.0314
2312.00,0.0315
2311.00,0.0316
2310.00,0.0317
2309.00,0.0318
2308.00,0.0318
2307.00,0.0317
2306.00,0.0317
2305.00,0.0316
2304.00,0.0316
2303.00,0.0315
2302.00,0.0314
2301.00,0.0314
2300.00,0.0314
2299.00,0.0315
2298.00,0.0315
2297.00,0.0315
2296.00,0.0315
2295.00,0.0315
2294.00,0.0316
2293.00,0.0317
2292.00,0.0319
2291.00,0.0320
2290.00,0.0320
2289.00,0.0319
2288.00,0.0319
2287.00,0.0320
2286.00,0.0322
2285.00,0.0323
2284.00,0.0324
2283.00,0.0324
2282.00,0.0324
2281.00,0.0324
2280.00,0.0323
2279.00,0.0323
2278.00,0.0323
2277.00,0.0323
2276.00,0.0322
2275.00,0.0320
2274.00,0.0319
2273.00,0.0317
2272.00,0.0317
2271.00,0.0317
2270.00,0.0317
2269.00,0.0318
2268.00,0.0318
2267.00,0.0318
2266.00,0.0318
2265.00,0.0318
2264.00,0.0318
2263.00,0.0318
2262.00,0.0319
2261.00,0.0319
2260.00,0.0319
2259.00,0.0318
2258.00,0.0316
2257.00,0.0314
2256.00,0.0313
2255.00,0.0313
2254.00,0.0313
2253.00,0.0314
2252.00,0.0315
2251.00,0.0316
2250.00,0.0316
2249.00,0.0316
2248.00,0.0316
2247.00,0.0316
2246.00,0.0317
2245.00,0.0317
2244.00,0.0318
2243.00,0.0317
2242.00,0.0317
2241.00,0.0317
2240.00,0.0316
2239.00,0.0315
2238.00,0.0315
2237.00,0.0314
2236.00,0.0313
2235.00,0.0313
2234.00,0.0313
2233.00,0.0314
2232.00,0.0314
2231.00,0.0313
2230.00,0.0313
2229.00,0.0313
2228.00,0.0313
2227.00,0.0314
2226.00,0.0315
2225.00,0.0315
2224.00,0.0314
2223.00,0.0314
2222.00,0.0313
2221.00,0.0312
2220.00,0.0311
2219.00,0.0311
2218.00,0.0312
2217.00,0.0313
2216.00,0.0314
2215.00,0.0315
2214.00,0.0316
2213.00,0.0316
2212.00,0.0315
2211.00,0.0313
2210.00,0.0312
2209.00,0.0311
2208.00,0.0311
2207.00,0.0312
2206.00,0.0312
2205.00,0.0312
2204.00,0.0312
2203.00,0.0311
2202.00,0.0311
2201.00,0.0310
2200.00,0.0310
2199.00,0.0309
2198.00,0.0309
2197.00,0.0310
2196.00,0.0311
2195.00,0.0310
2194.00,0.0310
2193.00,0.0309
2192.00,0.0308
2191.00,0.0306
2190.00,0.0304
2189.00,0.0302
2188.00,0.0303
2187.00,0.0306
2186.00,0.0310
2185.00,0.0312
2184.00,0.0310
2183.00,0.0307
2182.00,0.0304
2181.00,0.0303
2180.00,0.0304
2179.00,0.0306
2178.00,0.0309
2177.00,0.0310
2176.00,0.0310
2175.00,0.0308
2174.00,0.0307
2173.00,0.0306
2172.00,0.0305
2171.00,0.0307
2170.00,0.0309
2169.00,0.0312
2168.00,0.0314
2167.00,0.0315
2166.00,0.0315
2165.00,0.0316
2164.00,0.0317
2163.00,0.0318
2162.00,0.0318
2161.00,0.0315
2160.00,0.0309
2159.00,0.0302
2158.00,0.0297
2157.00,0.0294
2156.00,0.0294
2155.00,0.0294
2154.00,0.0296
2153.00,0.0299
2152.00,0.0299
2151.00,0.0297
2150.00,0.0294
2149.00,0.0293
2148.00,0.0294
2147.00,0.0296
2146.00,0.0299
2145.00,0.0301
2144.00,0.0301
2143.00,0.0301
2142.00,0.0301
2141.00,0.0302
2140.00,0.0302
2139.00,0.0300
2138.00,0.0298
2137.00,0.0295
2136.00,0.0292
2135.00,0.0290
2134.00,0.0289
2133.00,0.0290
2132.00,0.0291
2131.00,0.0291
2130.00,0.0292
2129.00,0.0293
2128.00,0.0294
2127.00,0.0295
2126.00,0.0294
2125.00,0.0293
2124.00,0.0292
2123.00,0.0291
2122.00,0.0291
2121.00,0.0290
2120.00,0.0289
2119.00,0.0288
2118.00,0.0288
2117.00,0.0289
2116.00,0.0288
2115.00,0.0287
2114.00,0.0285
2113.00,0.0285
2112.00,0.0286
2111.00,0.0288
2110.00,0.0290
2109.00,0.0292
2108.00,0.0293
2107.00,0.0293
2106.00,0.0293
2105.00,0.0292
2104.00,0.0291
2103.00,0.0290
2102.00,0.0290
2101.00,0.0289
2100.00,0.0288
2099.00,0.0286
2098.00,0.0284
2097.00,0.0284
2096.00,0.0284
2095.00,0.0285
2094.00,0.0285
2093.00,0.0286
2092.00,0.0286
2091.00,0.0285
2090.00,0.0284
2089.00,0.0284
2088.00,0.0285
2087.00,0.0285
2086.00,0.0285
2085.00,0.0286
2084.00,0.0287
2083.00,0.0287
2082.00,0.0286
2081.00,0.0286
2080.00,0.0286
2079.00,0.0286
2078.00,0.0285
2077.00,0.0285
2076.00,0.0284
2075.00,0.0285
2074.00,0.0285
2073.00,0.0285
2072.00,0.0285
2071.00,0.0285
2070.00,0.0285
2069.00,0.0283
2068.00,0.0281
2067.00,0.0279
2066.00,0.0279
2065.00,0.0279
2064.00,0.0281
2063.00,0.0282
2062.00,0.0283
2061.00,0.0283
2060.00,0.0282
2059.00,0.0280
2058.00,0.0280
2057.00,0.0281
2056.00,0.0281
2055.00,0.0282
2054.00,0.0283
2053.00,0.0285
2052.00,0.0287
2051.00,0.0286
2050.00,0.0284
2049.00,0.0281
2048.00,0.0279
2047.00,0.0278
2046.00,0.0279
2045.00,0.0282
2044.00,0.0284
2043.00,0.0286
2042.00,0.0285
2041.00,0.0284
2040.00,0.0281
2039.00,0.0280
2038.00,0.0280
2037.00,0.0283
2036.00,0.0284
2035.00,0.0283
2034.00,0.0280
2033.00,0.0280
2032.00,0.0282
2031.00,0.0285
2030.00,0.0285
2029.00,0.0283
2028.00,0.0280
2027.00,0.0278
2026.00,0.0277
2025.00,0.0275
2024.00,0.0272
2023.00,0.0269
2022.00,0.0267
2021.00,0.0266
2020.00,0.0266
2019.00,0.0265
2018.00,0.0264
2017.00,0.0264
2016.00,0.0264
2015.00,0.0265
2014.00,0.0265
2013.00,0.0265
2012.00,0.0265
2011.00,0.0266
2010.00,0.0267
2009.00,0.0268
2008.00,0.0269
2007.00,0.0269
2006.00,0.0268
2005.00,0.0266
2004.00,0.0266
2003.00,0.0267
2002.00,0.0270
2001.00,0.0273
2000.00,0.0274
1999.00,0.0271
1998.00,0.0269
1997.00,0.0268
1996.00,0.0269
1995.00,0.0271
1994.00,0.0273
1993.00,0.0275
1992.00,0.0275
1991.00,0.0273
1990.00,0.0270
1989.00,0.0268
1988.00,0.0266
1987.00,0.0266
1986.00,0.0266
1985.00,0.0266
1984.00,0.0266
1983.00,0.0266
1982.00,0.0265
1981.00,0.0263
1980.00,0.0261
1979.00,0.0258
1978.00,0.0254
1977.00,0.0252
1976.00,0.0252
1975.00,0.0255
1974.00,0.0258
1973.00,0.0260
1972.00,0.0258
1971.00,0.0255
1970.00,0.0254
1969.00,0.0256
1968.00,0.0257
1967.00,0.0256
1966.00,0.0254
1965.00,0.0253
1964.00,0.0252
1963.00,0.0252
1962.00,0.0251
1961.00,0.0250
1960.00,0.0248
1959.00,0.0248
1958.00,0.0249
1957.00,0.0249
1956.00,0.0249
1955.00,0.0248
1954.00,0.0249
1953.00,0.0250
1952.00,0.0250
1951.00,0.0249
1950.00,0.0246
1949.00,0.0245
1948.00,0.0244
1947.00,0.0245
1946.00,0.0244
1945.00,0.0243
1944.00,0.0241
1943.00,0.0239
1942.00,0.0238
1941.00,0.0238
1940.00,0.0237
1939.00,0.0236
1938.00,0.0235
1937.00,0.0235
1936.00,0.0235
1935.00,0.0235
1934.00,0.0234
1933.00,0.0233
1932.00,0.0233
1931.00,0.0235
1930.00,0.0237
1929.00,0.0239
1928.00,0.0240
1927.00,0.0240
1926.00,0.0239
1925.00,0.0238
1924.00,0.0237
1923.00,0.0236
1922.00,0.0235
1921.00,0.0234
1920.00,0.0234
1919.00,0.0233
1918.00,0.0231
1917.00,0.0229
1916.00,0.0229
1915.00,0.0229
1914.00,0.0229
1913.00,0.0229
1912.00,0.0229
1911.00,0.0228
1910.00,0.0227
1909.00,0.0225
1908.00,0.0223
1907.00,0.0222
1906.00,0.0223
1905.00,0.0223
1904.00,0.0224
1903.00,0.0223
1902.00,0.0223
1901.00,0.0222
1900.00,0.0222
1899.00,0.0222
1898.00,0.0222
1897.00,0.0222
1896.00,0.0220
1895.00,0.0218
1894.00,0.0217
1893.00,0.0218
1892.00,0.0219
1891.00,0.0220
1890.00,0.0219
1889.00,0.0218
1888.00,0.0217
1887.00,0.0216
1886.00,0.0215
1885.00,0.0215
1884.00,0.0214
1883.00,0.0214
1882.00,0.0214
1881.00,0.0213
1880.00,0.0213
1879.00,0.0212
1878.00,0.0211
1877.00,0.0210
1876.00,0.0209
1875.00,0.0209
1874.00,0.0209
1873.00,0.0210
1872.00,0.0211
1871.00,0.0211
1870.00,0.0210
1869.00,0.0207
1868.00,0.0204
1867.00,0.0202
1866.00,0.0203
1865.00,0.0204
1864.00,0.0204
1863.00,0.0203
1862.00,0.0202
1861.00,0.0201
1860.00,0.0200
1859.00,0.0199
1858.00,0.0199
1857.00,0.0199
1856.00,0.0199
1855.00,0.0199
1854.00,0.0198
1853.00,0.0197
1852.00,0.0197
1851.00,0.0196
1850.00,0.0196
1849.00,0.0196
1848.00,0.0195
1847.00,0.0195
1846.00,0.0196
1845.00,0.0196
1844.00,0.0193
1843.00,0.0189
1842.00,0.0189
1841.00,0.0190
1840.00,0.0190
1839.00,0.0190
1838.00,0.0188
1837.00,0.0187
1836.00,0.0186
1835.00,0.0185
1834.00,0.0185
1833.00,0.0186
1832.00,0.0187
1831.00,0.0187
1830.00,0.0184
1829.00,0.0180
1828.00,0.0180
1827.00,0.0181
1826.00,0.0182
1825.00,0.0180
1824.00,0.0178
1823.00,0.0177
1822.00,0.0177
1821.00,0.0177
1820.00,0.0177
1819.00,0.0175
1818.00,0.0174
1817.00,0.0173
1816.00,0.0172
1815.00,0.0171
1814.00,0.0171
1813.00,0.0171
1812.00,0.0171
1811.00,0.0169
1810.00,0.0168
1809.00,0.0167
1808.00,0.0167
1807.00,0.0168
1806.00,0.0168
1805.00,0.0168
1804.00,0.0169
1803.00,0.0169
1802.00,0.0169
1801.00,0.0168
1800.00,0.0167
1799.00,0.0165
1798.00,0.0165
1797.00,0.0166
1796.00,0.0167
1795.00,0.0167
1794.00,0.0167
1793.00,0.0167
1792.00,0.0166
1791.00,0.0164
1790.00,0.0164
1789.00,0.0166
1788.00,0.0168
1787.00,0.0169
1786.00,0.0170
1785.00,0.0170
1784.00,0.0171
1783.00,0.0171
1782.00,0.0172
1781.00,0.0172
1780.00,0.0171
1779.00,0.0171
1778.00,0.0173
1777.00,0.0175
1776.00,0.0177
1775.00,0.0179
1774.00,0.0180
1773.00,0.0179
1772.00,0.0176
1771.00,0.0175
1770.00,0.0178
1769.00,0.0183
1768.00,0.0186
1767.00,0.0187
1766.00,0.0188
1765.00,0.0190
1764.00,0.0193
1763.00,0.0195
1762.00,0.0194
1761.00,0.0194
1760.00,0.0196
1759.00,0.0199
1758.00,0.0202
1757.00,0.0203
1756.00,0.0204
1755.00,0.0207
1754.00,0.0211
1753.00,0.0214
1752.00,0.0216
1751.00,0.0216
1750.00,0.0217
1749.00,0.0218
1748.00,0.0220
1747.00,0.0222
1746.00,0.0225
1745.00,0.0229
1744.00,0.0232
1743.00,0.0234
1742.00,0.0236
1741.00,0.0239
1740.00,0.0241
1739.00,0.0242
1738.00,0.0244
1737.00,0.0248
1736.00,0.0252
1735.00,0.0256
1734.00,0.0256
1733.00,0.0254
1732.00,0.0256
1731.00,0.0260
1730.00,0.0264
1729.00,0.0267
1728.00,0.0269
1727.00,0.0272
1726.00,0.0274
1725.00,0.0277
1724.00,0.0279
1723.00,0.0280
1722.00,0.0282
1721.00,0.0283
1720.00,0.0285
1719.00,0.0286
1718.00,0.0286
1717.00,0.0286
1716.00,0.0286
1715.00,0.0289
1714.00,0.0292
1713.00,0.0295
1712.00,0.0297
1711.00,0.0297
1710.00,0.0297
1709.00,0.0297
1708.00,0.0297
1707.00,0.0297
1706.00,0.0297
1705.00,0.0296
1704.00,0.0297
1703.00,0.0300
1702.00,0.0304
1701.00,0.0307
1700.00,0.0306
1699.00,0.0301
1698.00,0.0302
1697.00,0.0304
1696.00,0.0304
1695.00,0.0301
1694.00,0.0302
1693.00,0.0307
1692.00,0.0310
1691.00,0.0311
1690.00,0.0312
1689.00,0.0312
1688.00,0.0313
1687.00,0.0314
1686.00,0.0313
1685.00,0.0315
1684.00,0.0315
1683.00,0.0314
1682.00,0.0319
1681.00,0.0325
1680.00,0.0327
1679.00,0.0329
1678.00,0.0333
1677.00,0.0337
1676.00,0.0342
1675.00,0.0345
1674.00,0.0346
1673.00,0.0347
1672.00,0.0348
1671.00,0.0350
1670.00,0.0353
1669.00,0.0356
1668.00,0.0359
1667.00,0.0362
1666.00,0.0365
1665.00,0.0367
1664.00,0.0370
1663.00,0.0373
1662.00,0.0375
1661.00,0.0378
1660.00,0.0383
1659.00,0.0387
1658.00,0.0389
1657.00,0.0389
1656.00,0.0388
1655.00,0.0387
1654.00,0.0391
1653.00,0.0396
1652.00,0.0396
1651.00,0.0400
1650.00,0.0406
1649.00,0.0409
1648.00,0.0412
1647.00,0.0416
1646.00,0.0421
1645.00,0.0425
1644.00,0.0430
1643.00,0.0434
1642.00,0.0437
1641.00,0.0438
1640.00,0.0439
1639.00,0.0440
1638.00,0.0441
1637.00,0.0445
1636.00,0.0452
1635.00,0.0458
1634.00,0.0461
1633.00,0.0465
1632.00,0.0467
1631.00,0.0469
1630.00,0.0471
1629.00,0.0475
1628.00,0.0478
1627.00,0.0481
1626.00,0.0485
1625.00,0.0489
1624.00,0.0494
1623.00,0.0499
1622.00,0.0501
1621.00,0.0503
1620.00,0.0505
1619.00,0.0506
1618.00,0.0508
1617.00,0.0512
1616.00,0.0517
1615.00,0.0521
1614.00,0.0526
1613.00,0.0530
1612.00,0.0533
1611.00,0.0535
1610.00,0.0538
1609.00,0.0541
1608.00,0.0544
1607.00,0.0548
1606.00,0.0552
1605.00,0.0556
1604.00,0.0560
1603.00,0.0563
1602.00,0.0565
1601.00,0.0567
1600.00,0.0569
1599.00,0.0572
1598.00,0.0576
1597.00,0.0579
1596.00,0.0582
1595.00,0.0586
1594.00,0.0589
1593.00,0.0592
1592.00,0.0595
1591.00,0.0597
1590.00,0.0600
1589.00,0.0603
1588.00,0.0606
1587.00,0.0609
1586.00,0.0612
1585.00,0.0614
1584.00,0.0616
1583.00,0.0618
1582.00,0.0620
1581.00,0.0621
1580.00,0.0620
1579.00,0.0620
1578.00,0.0620
1577.00,0.0623
1576.00,0.0627
1575.00,0.0629
1574.00,0.0630
1573.00,0.0630
1572.00,0.0629
1571.00,0.0630
1570.00,0.0633
1569.00,0.0636
1568.00,0.0637
1567.00,0.0637
1566.00,0.0637
1565.00,0.0635
1564.00,0.0633
1563.00,0.0630
1562.00,0.0624
1561.00,0.0617
1560.00,0.0619
1559.00,0.0633
1558.00,0.0635
1557.00,0.0634
1556.00,0.0634
1555.00,0.0634
1554.00,0.0632
1553.00,0.0629
1552.00,0.0628
1551.00,0.0626
1550.00,0.0624
1549.00,0.0621
1548.00,0.0618
1547.00,0.0614
1546.00,0.0610
1545.00,0.0607
1544.00,0.0603
1543.00,0.0598
1542.00,0.0593
1541.00,0.0591
1540.00,0.0592
1539.00,0.0590
1538.00,0.0588
1537.00,0.0587
1536.00,0.0585
1535.00,0.0582
1534.00,0.0581
1533.00,0.0580
1532.00,0.0578
1531.00,0.0575
1530.00,0.0572
1529.00,0.0568
1528.00,0.0565
1527.00,0.0562
1526.00,0.0558
1525.00,0.0554
1524.00,0.0551
1523.00,0.0547
1522.00,0.0546
1521.00,0.0546
1520.00,0.0545
1519.00,0.0544
1518.00,0.0542
1517.00,0.0540
1516.00,0.0537
1515.00,0.0535
1514.00,0.0533
1513.00,0.0531
1512.00,0.0528
1511.00,0.0523
1510.00,0.0518
1509.00,0.0513
1508.00,0.0511
1507.00,0.0511
1506.00,0.0510
1505.00,0.0509
1504.00,0.0509
1503.00,0.0508
1502.00,0.0504
1501.00,0.0500
1500.00,0.0498
1499.00,0.0496
1498.00,0.0496
1497.00,0.0496
1496.00,0.0496
1495.00,0.0495
1494.00,0.0492
1493.00,0.0489
1492.00,0.0487
1491.00,0.0485
1490.00,0.0485
1489.00,0.0485
1488.00,0.0484
1487.00,0.0483
1486.00,0.0482
1485.00,0.0481
1484.00,0.0479
1483.00,0.0478
1482.00,0.0478
1481.00,0.0477
1480.00,0.0476
1479.00,0.0475
1478.00,0.0474
1477.00,0.0473
1476.00,0.0473
1475.00,0.0472
1474.00,0.0472
1473.00,0.0474
1472.00,0.0477
1471.00,0.0479
1470.00,0.0480
1469.00,0.0481
1468.00,0.0480
1467.00,0.0479
1466.00,0.0479
1465.00,0.0479
1464.00,0.0480
1463.00,0.0479
1462.00,0.0478
1461.00,0.0476
1460.00,0.0474
1459.00,0.0474
1458.00,0.0478
1457.00,0.0484
1456.00,0.0487
1455.00,0.0489
1454.00,0.0490
1453.00,0.0490
1452.00,0.0491
1451.00,0.0492
1450.00,0.0494
1449.00,0.0497
1448.00,0.0501
1447.00,0.0504
1446.00,0.0505
1445.00,0.0506
1444.00,0.0507
1443.00,0.0508
1442.00,0.0508
1441.00,0.0509
1440.00,0.0510
1439.00,0.0512
1438.00,0.0516
1437.00,0.0522
1436.00,0.0527
1435.00,0.0527
1434.00,0.0525
1433.00,0.0524
1432.00,0.0524
1431.00,0.0525
1430.00,0.0526
1429.00,0.0528
1428.00,0.0529
1427.00,0.0530
1426.00,0.0531
1425.00,0.0532
1424.00,0.0533
1423.00,0.0534
1422.00,0.0534
1421.00,0.0535
1420.00,0.0538
1419.00,0.0542
1418.00,0.0545
1417.00,0.0547
1416.00,0.0548
1415.00,0.0547
1414.00,0.0546
1413.00,0.0544
1412.00,0.0544
1411.00,0.0545
1410.00,0.0545
1409.00,0.0546
1408.00,0.0546
1407.00,0.0547
1406.00,0.0547
1405.00,0.0548
1404.00,0.0549
1403.00,0.0549
1402.00,0.0548
1401.00,0.0547
1400.00,0.0548
1399.00,0.0549
1398.00,0.0550
1397.00,0.0551
1396.00,0.0552
1395.00,0.0555
1394.00,0.0556
1393.00,0.0557
1392.00,0.0557
1391.00,0.0557
1390.00,0.0557
1389.00,0.0558
1388.00,0.0561
1387.00,0.0563
1386.00,0.0564
1385.00,0.0564
1384.00,0.0564
1383.00,0.0564
1382.00,0.0565
1381.00,0.0566
1380.00,0.0568
1379.00,0.0570
1378.00,0.0571
1377.00,0.0571
1376.00,0.0572
1375.00,0.0574
1374.00,0.0576
1373.00,0.0578
1372.00,0.0579
1371.00,0.0579
1370.00,0.0579
1369.00,0.0579
1368.00,0.0580
1367.00,0.0580
1366.00,0.0579
1365.00,0.0578
1364.00,0.0579
1363.00,0.0581
1362.00,0.0583
1361.00,0.0585
1360.00,0.0585
1359.00,0.0585
1358.00,0.0584
1357.00,0.0584
1356.00,0.0585
1355.00,0.0585
1354.00,0.0585
1353.00,0.0585
1352.00,0.0584
1351.00,0.0583
1350.00,0.0582
1349.00,0.0581
1348.00,0.0581
1347.00,0.0581
1346.00,0.0581
1345.00,0.0580
1344.00,0.0579
1343.00,0.0578
1342.00,0.0577
1341.00,0.0578
1340.00,0.0580
1339.00,0.0581
1338.00,0.0582
1337.00,0.0581
1336.00,0.0580
1335.00,0.0579
1334.00,0.0578
1333.00,0.0577
1332.00,0.0576
1331.00,0.0575
1330.00,0.0574
1329.00,0.0574
1328.00,0.0573
1327.00,0.0572
1326.00,0.0571
1325.00,0.0571
1324.00,0.0570
1323.00,0.0570
1322.00,0.0570
1321.00,0.0570
1320.00,0.0569
1319.00,0.0569
1318.00,0.0567
1317.00,0.0565
1316.00,0.0564
1315.00,0.0563
1314.00,0.0563
1313.00,0.0564
1312.00,0.0565
1311.00,0.0565
1310.00,0.0565
1309.00,0.0564
1308.00,0.0563
1307.00,0.0562
1306.00,0.0562
1305.00,0.0561
1304.00,0.0562
1303.00,0.0562
1302.00,0.0562
1301.00,0.0562
1300.00,0.0561
1299.00,0.0560
1298.00,0.0559
1297.00,0.0558
1296.00,0.0557
1295.00,0.0558
1294.00,0.0558
1293.00,0.0559
1292.00,0.0560
1291.00,0.0560
1290.00,0.0560
1289.00,0.0560
1288.00,0.0560
1287.00,0.0560
1286.00,0.0559
1285.00,0.0559
1284.00,0.0560
1283.00,0.0560
1282.00,0.0560
1281.00,0.0560
1280.00,0.0559
1279.00,0.0558
1278.00,0.0557
1277.00,0.0557
1276.00,0.0557
1275.00,0.0557
1274.00,0.0557
1273.00,0.0557
1272.00,0.0557
1271.00,0.0557
1270.00,0.0557
1269.00,0.0557
1268.00,0.0557
1267.00,0.0557
1266.00,0.0557
1265.00,0.0558
1264.00,0.0558
1263.00,0.0557
1262.00,0.0557
1261.00,0.0557
1260.00,0.0558
1259.00,0.0558
1258.00,0.0559
1257.00,0.0559
1256.00,0.0558
1255.00,0.0557
1254.00,0.0557
1253.00,0.0557
1252.00,0.0557
1251.00,0.0557
1250.00,0.0556
1249.00,0.0556
1248.00,0.0556
1247.00,0.0556
1246.00,0.0557
1245.00,0.0557
1244.00,0.0558
1243.00,0.0558
1242.00,0.0558
1241.00,0.0557
1240.00,0.0556
1239.00,0.0555
1238.00,0.0555
1237.00,0.0556
1236.00,0.0556
1235.00,0.0556
1234.00,0.0555
1233.00,0.0554
1232.00,0.0554
1231.00,0.0553
1230.00,0.0552
1229.00,0.0552
1228.00,0.0551
1227.00,0.0551
1226.00,0.0551
1225.00,0.0550
1224.00,0.0548
1223.00,0.0547
1222.00,0.0546
1221.00,0.0546
1220.00,0.0546
1219.00,0.0545
1218.00,0.0544
1217.00,0.0543
1216.00,0.0543
1215.00,0.0542
1214.00,0.0541
1213.00,0.0539
1212.00,0.0539
1211.00,0.0538
1210.00,0.0538
1209.00,0.0538
1208.00,0.0537
1207.00,0.0536
1206.00,0.0535
1205.00,0.0533
1204.00,0.0532
1203.00,0.0531
1202.00,0.0530
1201.00,0.0529
1200.00,0.0528
1199.00,0.0528
1198.00,0.0528
1197.00,0.0527
1196.00,0.0525
1195.00,0.0524
1194.00,0.0523
1193.00,0.0521
1192.00,0.0520
1191.00,0.0519
1190.00,0.0517
1189.00,0.0515
1188.00,0.0513
1187.00,0.0512
1186.00,0.0512
1185.00,0.0511
1184.00,0.0510
1183.00,0.0508
1182.00,0.0506
1181.00,0.0504
1180.00,0.0503
1179.00,0.0502
1178.00,0.0502
1177.00,0.0501
1176.00,0.0501
1175.00,0.0501
1174.00,0.0500
1173.00,0.0500
1172.00,0.0499
1171.00,0.0497
1170.00,0.0496
1169.00,0.0495
1168.00,0.0494
1167.00,0.0493
1166.00,0.0493
1165.00,0.0492
1164.00,0.0492
1163.00,0.0492
1162.00,0.0491
1161.00,0.0491
1160.00,0.0490
1159.00,0.0489
1158.00,0.0488
1157.00,0.0487
1156.00,0.0488
1155.00,0.0489
1154.00,0.0490
1153.00,0.0490
1152.00,0.0489
1151.00,0.0487
1150.00,0.0485
1149.00,0.0484
1148.00,0.0483
1147.00,0.0483
1146.00,0.0483
1145.00,0.0483
1144.00,0.0483
1143.00,0.0484
1142.00,0.0485
1141.00,0.0485
1140.00,0.0485
1139.00,0.0485
1138.00,0.0484
1137.00,0.0484
1136.00,0.0484
1135.00,0.0485
1134.00,0.0485
1133.00,0.0485
1132.00,0.0484
1131.00,0.0483
1130.00,0.0483
1129.00,0.0484
1128.00,0.0486
1127.00,0.0485
1126.00,0.0483
1125.00,0.0481
1124.00,0.0480
1123.00,0.0482
1122.00,0.0484
1121.00,0.0487
1120.00,0.0488
1119.00,0.0488
1118.00,0.0488
1117.00,0.0487
1116.00,0.0488
1115.00,0.0489
1114.00,0.0490
1113.00,0.0489
1112.00,0.0488
1111.00,0.0487
1110.00,0.0487
1109.00,0.0487
1108.00,0.0486
1107.00,0.0485
1106.00,0.0484
1105.00,0.0483
1104.00,0.0484
1103.00,0.0485
1102.00,0.0487
1101.00,0.0488
1100.00,0.0488
1099.00,0.0487
1098.00,0.0486
1097.00,0.0485
1096.00,0.0485
1095.00,0.0484
1094.00,0.0484
1093.00,0.0485
1092.00,0.0487
1091.00,0.0488
1090.00,0.0487
1089.00,0.0485
1088.00,0.0484
1087.00,0.0484
1086.00,0.0485
1085.00,0.0487
1084.00,0.0489
1083.00,0.0490
1082.00,0.0491
1081.00,0.0492
1080.00,0.0493
1079.00,0.0494
1078.00,0.0496
1077.00,0.0497
1076.00,0.0497
1075.00,0.0496
1074.00,0.0494
1073.00,0.0492
1072.00,0.0492
1071.00,0.0492
1070.00,0.0491
1069.00,0.0490
1068.00,0.0489
1067.00,0.0490
1066.00,0.0492
1065.00,0.0494
1064.00,0.0496
1063.00,0.0498
1062.00,0.0498
1061.00,0.0496
1060.00,0.0494
1059.00,0.0493
1058.00,0.0494
1057.00,0.0495
1056.00,0.0497
1055.00,0.0498
1054.00,0.0499
1053.00,0.0500
1052.00,0.0502
1051.00,0.0503
1050.00,0.0505
1049.00,0.0507
1048.00,0.0510
1047.00,0.0511
1046.00,0.0511
1045.00,0.0511
1044.00,0.0511
1043.00,0.0511
1042.00,0.0509
1041.00,0.0507
1040.00,0.0505
1039.00,0.0505
1038.00,0.0506
1037.00,0.0506
1036.00,0.0505
1035.00,0.0505
1034.00,0.0504
1033.00,0.0505
1032.00,0.0504
1031.00,0.0503
1030.00,0.0501
1029.00,0.0499
1028.00,0.0498
1027.00,0.0498
1026.00,0.0499
1025.00,0.0500
1024.00,0.0500
1023.00,0.0499
1022.00,0.0497
1021.00,0.0495
1020.00,0.0494
1019.00,0.0493
1018.00,0.0493
1017.00,0.0492
1016.00,0.0493
1015.00,0.0493
1014.00,0.0494
1013.00,0.0494
1012.00,0.0493
1011.00,0.0492
1010.00,0.0491
1009.00,0.0490
1008.00,0.0489
1007.00,0.0488
1006.00,0.0486
1005.00,0.0485
1004.00,0.0485
1003.00,0.0485
1002.00,0.0484
1001.00,0.0483
1000.00,0.0481
999.00,0.0477
998.00,0.0474
997.00,0.0473
996.00,0.0473
995.00,0.0475
994.00,0.0475
993.00,0.0473
992.00,0.0471
991.00,0.0469
990.00,0.0468
989.00,0.0467
988.00,0.0468
987.00,0.0468
986.00,0.0469
985.00,0.0469
984.00,0.0468
983.00,0.0466
982.00,0.0464
981.00,0.0463
980.00,0.0463
979.00,0.0462
978.00,0.0460
977.00,0.0457
976.00,0.0455
975.00,0.0454
974.00,0.0454
973.00,0.0454
972.00,0.0453
971.00,0.0451
970.00,0.0449
969.00,0.0447
968.00,0.0446
967.00,0.0444
966.00,0.0443
965.00,0.0441
964.00,0.0440
963.00,0.0441
962.00,0.0442
961.00,0.0442
960.00,0.0441
959.00,0.0439
958.00,0.0437
957.00,0.0436
956.00,0.0436
955.00,0.0435
954.00,0.0434
953.00,0.0434
952.00,0.0435
951.00,0.0436
950.00,0.0439
949.00,0.0440
948.00,0.0439
947.00,0.0438
946.00,0.0437
945.00,0.0436
944.00,0.0435
943.00,0.0435
942.00,0.0435
941.00,0.0436
940.00,0.0437
939.00,0.0439
938.00,0.0440
937.00,0.0440
936.00,0.0439
935.00,0.0437
934.00,0.0437
933.00,0.0440
932.00,0.0443
931.00,0.0446
930.00,0.0448
929.00,0.0448
928.00,0.0449
927.00,0.0451
926.00,0.0452
925.00,0.0453
924.00,0.0454
923.00,0.0454
922.00,0.0454
921.00,0.0454
920.00,0.0454
919.00,0.0455
918.00,0.0455
917.00,0.0456
916.00,0.0457
915.00,0.0458
914.00,0.0459
913.00,0.0459
912.00,0.0459
911.00,0.0458
910.00,0.0457
909.00,0.0455
908.00,0.0453
907.00,0.0452
906.00,0.0452
905.00,0.0455
904.00,0.0459
903.00,0.0463
902.00,0.0465
901.00,0.0464
900.00,0.0462
899.00,0.0461
898.00,0.0461
897.00,0.0463
896.00,0.0464
895.00,0.0464
894.00,0.0463
893.00,0.0462
892.00,0.0460
891.00,0.0460
890.00,0.0460
889.00,0.0462
888.00,0.0463
887.00,0.0462
886.00,0.0459
885.00,0.0457
884.00,0.0458
883.00,0.0461
882.00,0.0464
881.00,0.0466
880.00,0.0465
879.00,0.0464
878.00,0.0461
877.00,0.0458
876.00,0.0456
875.00,0.0455
874.00,0.0455
873.00,0.0455
872.00,0.0455
871.00,0.0456
870.00,0.0458
869.00,0.0458
868.00,0.0458
867.00,0.0457
866.00,0.0458
865.00,0.0459
864.00,0.0461
863.00,0.0463
862.00,0.0464
861.00,0.0465
860.00,0.0466
859.00,0.0466
858.00,0.0464
857.00,0.0463
856.00,0.0463
855.00,0.0465
854.00,0.0467
853.00,0.0468
852.00,0.0467
851.00,0.0468
850.00,0.0470
849.00,0.0474
848.00,0.0477
847.00,0.0480
846.00,0.0483
845.00,0.0486
844.00,0.0488
843.00,0.0489
842.00,0.0488
841.00,0.0487
840.00,0.0487
839.00,0.0487
838.00,0.0487
837.00,0.0489
836.00,0.0490
835.00,0.0491
834.00,0.0491
833.00,0.0491
832.00,0.0492
831.00,0.0492
830.00,0.0493
829.00,0.0493
828.00,0.0494
827.00,0.0497
826.00,0.0501
825.00,0.0505
824.00,0.0508
823.00,0.0508
822.00,0.0508
821.00,0.0508
820.00,0.0509
819.00,0.0511
818.00,0.0512
817.00,0.0511
816.00,0.0510
815.00,0.0509
814.00,0.0510
813.00,0.0513
812.00,0.0515
811.00,0.0516
810.00,0.0517
809.00,0.0518
808.00,0.0519
807.00,0.0519
806.00,0.0519
805.00,0.0517
804.00,0.0516
803.00,0.0515
802.00,0.0516
801.00,0.0519
800.00,0.0523
799.00,0.0527
798.00,0.0529
797.00,0.0528
796.00,0.0528
795.00,0.0528
794.00,0.0529
793.00,0.0530
792.00,0.0530
791.00,0.0531
790.00,0.0533
789.00,0.0534
788.00,0.0534
787.00,0.0535
786.00,0.0536
785.00,0.0540
784.00,0.0543
783.00,0.0545
782.00,0.0545
781.00,0.0543
780.00,0.0542
779.00,0.0541
778.00,0.0542
777.00,0.0545
776.00,0.0548
775.00,0.0551
774.00,0.0552
773.00,0.0552
772.00,0.0552
771.00,0.0553
770.00,0.0555
769.00,0.0557
768.00,0.0557
767.00,0.0557
766.00,0.0555
765.00,0.0554
764.00,0.0554
763.00,0.0555
762.00,0.0554
761.00,0.0553
760.00,0.0554
759.00,0.0557
758.00,0.0561
757.00,0.0564
756.00,0.0566
755.00,0.0566
754.00,0.0567
753.00,0.0568
752.00,0.0570
751.00,0.0573
750.00,0.0576
749.00,0.0579
748.00,0.0581
747.00,0.0583
746.00,0.0584
745.00,0.0584
744.00,0.0582
743.00,0.0580
742.00,0.0579
741.00,0.0579
740.00,0.0579
739.00,0.0579
738.00,0.0579
737.00,0.0580
736.00,0.0580
735.00,0.0580
734.00,0.0580
733.00,0.0580
732.00,0.0581
731.00,0.0583
730.00,0.0587
729.00,0.0593
728.00,0.0599
727.00,0.0605
726.00,0.0609
725.00,0.0609
724.00,0.0607
723.00,0.0604
722.00,0.0602
721.00,0.0603
720.00,0.0605
719.00,0.0607
718.00,0.0609
717.00,0.0610
716.00,0.0612
715.00,0.0612
714.00,0.0612
713.00,0.0614
712.00,0.0617
711.00,0.0620
710.00,0.0622
709.00,0.0623
708.00,0.0624
707.00,0.0626
706.00,0.0628
705.00,0.0630
704.00,0.0633
703.00,0.0637
702.00,0.0639
701.00,0.0639
700.00,0.0639
699.00,0.0640
698.00,0.0642
697.00,0.0644
696.00,0.0646
695.00,0.0648
694.00,0.0651
693.00,0.0655
692.00,0.0658
691.00,0.0660
690.00,0.0662
689.00,0.0666
688.00,0.0668
687.00,0.0666
686.00,0.0663
685.00,0.0660
684.00,0.0658
683.00,0.0656
682.00,0.0655
681.00,0.0657
680.00,0.0662
679.00,0.0667
678.00,0.0670
677.00,0.0673
676.00,0.0676
675.00,0.0679
674.00,0.0682
673.00,0.0683
672.00,0.0683
671.00,0.0683
670.00,0.0683
669.00,0.0688
668.00,0.0694
667.00,0.0699
666.00,0.0700
665.00,0.0699
664.00,0.0698
663.00,0.0697
662.00,0.0694
661.00,0.0690
660.00,0.0686
659.00,0.0685
658.00,0.0690
657.00,0.0698
656.00,0.0705
655.00,0.0709
654.00,0.0708
653.00,0.0707
652.00,0.0706
651.00,0.0706
650.00,0.0706
