Created as New Dataset,Monday, April 03 2023
cm-1,A
4000.00,0.0405
3999.00,0.0405
3998.00,0.0405
3997.00,0.0405
3996.00,0.0405
3995.00,0.0405
3994.00,0.0404
3993.00,0.0404
3992.00,0.0404
3991.00,0.0405
3990.00,0.0405
3989.00,0.0404
3988.00,0.0404
3987.00,0.0404
3986.00,0.0404
3985.00,0.0404
3984.00,0.0404
3983.00,0.0404
3982.00,0.0404
3981.00,0.0404
3980.00,0.0403
3979.00,0.0403
3978.00,0.0402
3977.00,0.0402
3976.00,0.0402
3975.00,0.0402
3974.00,0.0402
3973.00,0.0402
3972.00,0.0402
3971.00,0.0402
3970.00,0.0403
3969.00,0.0403
3968.00,0.0403
3967.00,0.0402
3966.00,0.0401
3965.00,0.0401
3964.00,0.0402
3963.00,0.0403
3962.00,0.0403
3961.00,0.0403
3960.00,0.0402
3959.00,0.0401
3958.00,0.0401
3957.00,0.0401
3956.00,0.0401
3955.00,0.0400
3954.00,0.0399
3953.00,0.0398
3952.00,0.0398
3951.00,0.0399
3950.00,0.0400
3949.00,0.0401
3948.00,0.0400
3947.00,0.0399
3946.00,0.0398
3945.00,0.0398
3944.00,0.0398
3943.00,0.0399
3942.00,0.0398
3941.00,0.0397
3940.00,0.0398
3939.00,0.0399
3938.00,0.0399
3937.00,0.0399
3936.00,0.0397
3935.00,0.0396
3934.00,0.0396
3933.00,0.0397
3932.00,0.0397
3931.00,0.0397
3930.00,0.0397
3929.00,0.0396
3928.00,0.0396
3927.00,0.0397
3926.00,0.0397
3925.00,0.0397
3924.00,0.0396
3923.00,0.0395
3922.00,0.0394
3921.00,0.0394
3920.00,0.0394
3919.00,0.0395
3918.00,0.0396
3917.00,0.0398
3916.00,0.0398
3915.00,0.0399
3914.00,0.0399
3913.00,0.0400
3912.00,0.0401
3911.00,0.0400
3910.00,0.0398
3909.00,0.0395
3908.00,0.0391
3907.00,0.0387
3906.00,0.0385
3905.00,0.0383
3904.00,0.0382
3903.00,0.0381
3902.00,0.0382
3901.00,0.0386
3900.00,0.0390
3899.00,0.0392
3898.00,0.0392
3897.00,0.0392
3896.00,0.0392
3895.00,0.0392
3894.00,0.0392
3893.00,0.0393
3892.00,0.0394
3891.00,0.0392
3890.00,0.0387
3889.00,0.0384
3888.00,0.0385
3887.00,0.0388
3886.00,0.0390
3885.00,0.0388
3884.00,0.0384
3883.00,0.0384
3882.00,0.0388
3881.00,0.0391
3880.00,0.0391
3879.00,0.0388
3878.00,0.0387
3877.00,0.0390
3876.00,0.0392
3875.00,0.0391
3874.00,0.0386
3873.00,0.0380
3872.00,0.0380
3871.00,0.0384
3870.00,0.0387
3869.00,0.0384
3868.00,0.0380
3867.00,0.0382
3866.00,0.0387
3865.00,0.0390
3864.00,0.0391
3863.00,0.0392
3862.00,0.0392
3861.00,0.0393
3860.00,0.0392
3859.00,0.0388
3858.00,0.0381
3857.00,0.0372
3856.00,0.0365
3855.00,0.0366
3854.00,0.0374
3853.00,0.0379
3852.00,0.0377
3851.00,0.0380
3850.00,0.0389
3849.00,0.0396
3848.00,0.0397
3847.00,0.0395
3846.00,0.0393
3845.00,0.0390
3844.00,0.0387
3843.00,0.0383
3842.00,0.0379
3841.00,0.0377
3840.00,0.0379
3839.00,0.0382
3838.00,0.0384
3837.00,0.0383
3836.00,0.0383
3835.00,0.0385
3834.00,0.0388
3833.00,0.0392
3832.00,0.0393
3831.00,0.0393
3830.00,0.0392
3829.00,0.0392
3828.00,0.0394
3827.00,0.0393
3826.00,0.0389
3825.00,0.0384
3824.00,0.0381
3823.00,0.0383
3822.00,0.0387
3821.00,0.0386
3820.00,0.0380
3819.00,0.0377
3818.00,0.0382
3817.00,0.0390
3816.00,0.0395
3815.00,0.0394
3814.00,0.0393
3813.00,0.0395
3812.00,0.0397
3811.00,0.0395
3810.00,0.0390
3809.00,0.0389
3808.00,0.0390
3807.00,0.0390
3806.00,0.0386
3805.00,0.0382
3804.00,0.0383
3803.00,0.0388
3802.00,0.0393
3801.00,0.0391
3800.00,0.0386
3799.00,0.0386
3798.00,0.0391
3797.00,0.0396
3796.00,0.0397
3795.00,0.0397
3794.00,0.0397
3793.00,0.0399
3792.00,0.0400
3791.00,0.0401
3790.00,0.0400
3789.00,0.0399
3788.00,0.0398
3787.00,0.0399
3786.00,0.0400
3785.00,0.0400
3784.00,0.0398
3783.00,0.0395
3782.00,0.0394
3781.00,0.0396
3780.00,0.0397
3779.00,0.0397
3778.00,0.0397
3777.00,0.0397
3776.00,0.0398
3775.00,0.0398
3774.00,0.0396
3773.00,0.0393
3772.00,0.0392
3771.00,0.0393
3770.00,0.0392
3769.00,0.0390
3768.00,0.0389
3767.00,0.0392
3766.00,0.0395
3765.00,0.0395
3764.00,0.0393
3763.00,0.0391
3762.00,0.0391
3761.00,0.0392
3760.00,0.0391
3759.00,0.0390
3758.00,0.0388
3757.00,0.0385
3756.00,0.0381
3755.00,0.0377
3754.00,0.0373
3753.00,0.0371
3752.00,0.0372
3751.00,0.0375
3750.00,0.0376
3749.00,0.0373
3748.00,0.0370
3747.00,0.0372
3746.00,0.0379
3745.00,0.0385
3744.00,0.0384
3743.00,0.0378
3742.00,0.0378
3741.00,0.0384
3740.00,0.0386
3739.00,0.0382
3738.00,0.0378
3737.00,0.0376
3736.00,0.0377
3735.00,0.0377
3734.00,0.0377
3733.00,0.0380
3732.00,0.0383
3731.00,0.0385
3730.00,0.0386
3729.00,0.0388
3728.00,0.0390
3727.00,0.0391
3726.00,0.0389
3725.00,0.0387
3724.00,0.0387
3723.00,0.0388
3722.00,0.0390
3721.00,0.0391
3720.00,0.0393
3719.00,0.0394
3718.00,0.0394
3717.00,0.0391
3716.00,0.0387
3715.00,0.0384
3714.00,0.0382
3713.00,0.0383
3712.00,0.0385
3711.00,0.0387
3710.00,0.0387
3709.00,0.0388
3708.00,0.0390
3707.00,0.0393
3706.00,0.0395
3705.00,0.0395
3704.00,0.0395
3703.00,0.0394
3702.00,0.0394
3701.00,0.0394
3700.00,0.0393
3699.00,0.0394
3698.00,0.0397
3697.00,0.0397
3696.00,0.0395
3695.00,0.0392
3694.00,0.0387
3693.00,0.0384
3692.00,0.0381
3691.00,0.0382
3690.00,0.0387
3689.00,0.0391
3688.00,0.0391
3687.00,0.0391
3686.00,0.0393
3685.00,0.0397
3684.00,0.0398
3683.00,0.0397
3682.00,0.0394
3681.00,0.0389
3680.00,0.0383
3679.00,0.0375
3678.00,0.0370
3677.00,0.0371
3676.00,0.0376
3675.00,0.0374
3674.00,0.0368
3673.00,0.0367
3672.00,0.0374
3671.00,0.0383
3670.00,0.0388
3669.00,0.0388
3668.00,0.0387
3667.00,0.0390
3666.00,0.0394
3665.00,0.0397
3664.00,0.0397
3663.00,0.0397
3662.00,0.0396
3661.00,0.0395
3660.00,0.0392
3659.00,0.0390
3658.00,0.0390
3657.00,0.0391
3656.00,0.0390
3655.00,0.0385
3654.00,0.0380
3653.00,0.0375
3652.00,0.0370
3651.00,0.0368
3650.00,0.0369
3649.00,0.0373
3648.00,0.0375
3647.00,0.0377
3646.00,0.0381
3645.00,0.0386
3644.00,0.0391
3643.00,0.0395
3642.00,0.0396
3641.00,0.0396
3640.00,0.0395
3639.00,0.0395
3638.00,0.0394
3637.00,0.0393
3636.00,0.0393
3635.00,0.0392
3634.00,0.0389
3633.00,0.0383
3632.00,0.0377
3631.00,0.0375
3630.00,0.0378
3629.00,0.0384
3628.00,0.0384
3627.00,0.0383
3626.00,0.0386
3625.00,0.0391
3624.00,0.0392
3623.00,0.0389
3622.00,0.0386
3621.00,0.0386
3620.00,0.0387
3619.00,0.0387
3618.00,0.0385
3617.00,0.0384
3616.00,0.0385
3615.00,0.0388
3614.00,0.0389
3613.00,0.0388
3612.00,0.0386
3611.00,0.0385
3610.00,0.0388
3609.00,0.0393
3608.00,0.0396
3607.00,0.0397
3606.00,0.0397
3605.00,0.0397
3604.00,0.0397
3603.00,0.0398
3602.00,0.0399
3601.00,0.0399
3600.00,0.0398
3599.00,0.0397
3598.00,0.0395
3597.00,0.0395
3596.00,0.0396
3595.00,0.0397
3594.00,0.0397
3593.00,0.0396
3592.00,0.0393
3591.00,0.0391
3590.00,0.0390
3589.00,0.0390
3588.00,0.0393
3587.00,0.0394
3586.00,0.0394
3585.00,0.0395
3584.00,0.0398
3583.00,0.0401
3582.00,0.0402
3581.00,0.0403
3580.00,0.0403
3579.00,0.0403
3578.00,0.0403
3577.00,0.0403
3576.00,0.0404
3575.00,0.0405
3574.00,0.0406
3573.00,0.0405
3572.00,0.0402
3571.00,0.0398
3570.00,0.0394
3569.00,0.0392
3568.00,0.0394
3567.00,0.0397
3566.00,0.0397
3565.00,0.0397
3564.00,0.0398
3563.00,0.0401
3562.00,0.0403
3561.00,0.0405
3560.00,0.0407
3559.00,0.0407
3558.00,0.0407
3557.00,0.0408
3556.00,0.0408
3555.00,0.0408
3554.00,0.0408
3553.00,0.0409
3552.00,0.0409
3551.00,0.0409
3550.00,0.0408
3549.00,0.0407
3548.00,0.0407
3547.00,0.0408
3546.00,0.0409
3545.00,0.0409
3544.00,0.0410
3543.00,0.0411
3542.00,0.0412
3541.00,0.0412
3540.00,0.0412
3539.00,0.0411
3538.00,0.0410
3537.00,0.0410
3536.00,0.0410
3535.00,0.0411
3534.00,0.0412
3533.00,0.0413
3532.00,0.0414
3531.00,0.0413
3530.00,0.0412
3529.00,0.0411
3528.00,0.0409
3527.00,0.0409
3526.00,0.0410
3525.00,0.0412
3524.00,0.0415
3523.00,0.0416
3522.00,0.0416
3521.00,0.0416
3520.00,0.0415
3519.00,0.0414
3518.00,0.0414
3517.00,0.0415
3516.00,0.0415
3515.00,0.0415
3514.00,0.0416
3513.00,0.0417
3512.00,0.0417
3511.00,0.0417
3510.00,0.0417
3509.00,0.0416
3508.00,0.0415
3507.00,0.0414
3506.00,0.0414
3505.00,0.0415
3504.00,0.0417
3503.00,0.0418
3502.00,0.0418
3501.00,0.0418
3500.00,0.0418
3499.00,0.0418
3498.00,0.0419
3497.00,0.0420
3496.00,0.0421
3495.00,0.0420
3494.00,0.0420
3493.00,0.0420
3492.00,0.0420
3491.00,0.0420
3490.00,0.0420
3489.00,0.0419
3488.00,0.0419
3487.00,0.0418
3486.00,0.0418
3485.00,0.0418
3484.00,0.0419
3483.00,0.0420
3482.00,0.0420
3481.00,0.0421
3480.00,0.0421
3479.00,0.0421
3478.00,0.0421
3477.00,0.0422
3476.00,0.0423
3475.00,0.0423
3474.00,0.0424
3473.00,0.0424
3472.00,0.0425
3471.00,0.0425
3470.00,0.0425
3469.00,0.0425
3468.00,0.0424
3467.00,0.0425
3466.00,0.0425
3465.00,0.0426
3464.00,0.0427
3463.00,0.0426
3462.00,0.0425
3461.00,0.0424
3460.00,0.0424
3459.00,0.0425
3458.00,0.0427
3457.00,0.0427
3456.00,0.0426
3455.00,0.0425
3454.00,0.0425
3453.00,0.0426
3452.00,0.0426
3451.00,0.0426
3450.00,0.0426
3449.00,0.0426
3448.00,0.0426
3447.00,0.0426
3446.00,0.0426
3445.00,0.0426
3444.00,0.0427
3443.00,0.0429
3442.00,0.0429
3441.00,0.0428
3440.00,0.0426
3439.00,0.0426
3438.00,0.0426
3437.00,0.0426
3436.00,0.0427
3435.00,0.0427
3434.00,0.0426
3433.00,0.0427
3432.00,0.0427
3431.00,0.0428
3430.00,0.0428
3429.00,0.0428
3428.00,0.0427
3427.00,0.0427
3426.00,0.0428
3425.00,0.0429
3424.00,0.0431
3423.00,0.0432
3422.00,0.0433
3421.00,0.0433
3420.00,0.0432
3419.00,0.0432
3418.00,0.0432
3417.00,0.0432
3416.00,0.0431
3415.00,0.0431
3414.00,0.0431
3413.00,0.0431
3412.00,0.0431
3411.00,0.0431
3410.00,0.0431
3409.00,0.0432
3408.00,0.0432
3407.00,0.0433
3406.00,0.0433
3405.00,0.0432
3404.00,0.0432
3403.00,0.0431
3402.00,0.0431
3401.00,0.0432
3400.00,0.0433
3399.00,0.0433
3398.00,0.0433
3397.00,0.0433
3396.00,0.0433
3395.00,0.0432
3394.00,0.0432
3393.00,0.0433
3392.00,0.0433
3391.00,0.0434
3390.00,0.0434
3389.00,0.0435
3388.00,0.0434
3387.00,0.0434
3386.00,0.0434
3385.00,0.0434
3384.00,0.0434
3383.00,0.0435
3382.00,0.0435
3381.00,0.0435
3380.00,0.0436
3379.00,0.0436
3378.00,0.0437
3377.00,0.0436
3376.00,0.0436
3375.00,0.0436
3374.00,0.0436
3373.00,0.0436
3372.00,0.0436
3371.00,0.0436
3370.00,0.0435
3369.00,0.0436
3368.00,0.0436
3367.00,0.0436
3366.00,0.0436
3365.00,0.0435
3364.00,0.0434
3363.00,0.0435
3362.00,0.0436
3361.00,0.0438
3360.00,0.0438
3359.00,0.0439
3358.00,0.0439
3357.00,0.0438
3356.00,0.0438
3355.00,0.0438
3354.00,0.0438
3353.00,0.0438
3352.00,0.0439
3351.00,0.0439
3350.00,0.0439
3349.00,0.0439
3348.00,0.0439
3347.00,0.0439
3346.00,0.0438
3345.00,0.0438
3344.00,0.0438
3343.00,0.0438
3342.00,0.0439
3341.00,0.0439
3340.00,0.0439
3339.00,0.0440
3338.00,0.0440
3337.00,0.0440
3336.00,0.0440
3335.00,0.0440
3334.00,0.0440
3333.00,0.0439
3332.00,0.0439
3331.00,0.0439
3330.00,0.0438
3329.00,0.0438
3328.00,0.0438
3327.00,0.0438
3326.00,0.0439
3325.00,0.0440
3324.00,0.0441
3323.00,0.0442
3322.00,0.0441
3321.00,0.0440
3320.00,0.0439
3319.00,0.0439
3318.00,0.0439
3317.00,0.0439
3316.00,0.0439
3315.00,0.0440
3314.00,0.0440
3313.00,0.0440
3312.00,0.0440
3311.00,0.0440
3310.00,0.0440
3309.00,0.0441
3308.00,0.0442
3307.00,0.0443
3306.00,0.0443
3305.00,0.0442
3304.00,0.0442
3303.00,0.0442
3302.00,0.0441
3301.00,0.0441
3300.00,0.0442
3299.00,0.0442
3298.00,0.0442
3297.00,0.0442
3296.00,0.0443
3295.00,0.0443
3294.00,0.0443
3293.00,0.0443
3292.00,0.0442
3291.00,0.0442
3290.00,0.0442
3289.00,0.0443
3288.00,0.0443
3287.00,0.0443
3286.00,0.0443
3285.00,0.0444
3284.00,0.0444
3283.00,0.0445
3282.00,0.0445
3281.00,0.0444
3280.00,0.0444
3279.00,0.0444
3278.00,0.0444
3277.00,0.0444
3276.00,0.0444
3275.00,0.0444
3274.00,0.0445
3273.00,0.0445
3272.00,0.0446
3271.00,0.0447
3270.00,0.0447
3269.00,0.0448
3268.00,0.0448
3267.00,0.0447
3266.00,0.0446
3265.00,0.0445
3264.00,0.0444
3263.00,0.0444
3262.00,0.0444
3261.00,0.0444
3260.00,0.0445
3259.00,0.0446
3258.00,0.0446
3257.00,0.0445
3256.00,0.0445
3255.00,0.0445
3254.00,0.0445
3253.00,0.0446
3252.00,0.0446
3251.00,0.0447
3250.00,0.0446
3249.00,0.0446
3248.00,0.0445
3247.00,0.0445
3246.00,0.0445
3245.00,0.0445
3244.00,0.0446
3243.00,0.0446
3242.00,0.0446
3241.00,0.0446
3240.00,0.0446
3239.00,0.0446
3238.00,0.0446
3237.00,0.0447
3236.00,0.0448
3235.00,0.0449
3234.00,0.0449
3233.00,0.0449
3232.00,0.0449
3231.00,0.0448
3230.00,0.0448
3229.00,0.0447
3228.00,0.0447
3227.00,0.0447
3226.00,0.0447
3225.00,0.0447
3224.00,0.0447
3223.00,0.0447
3222.00,0.0447
3221.00,0.0447
3220.00,0.0447
3219.00,0.0447
3218.00,0.0447
3217.00,0.0447
3216.00,0.0448
3215.00,0.0449
3214.00,0.0449
3213.00,0.0449
3212.00,0.0448
3211.00,0.0448
3210.00,0.0448
3209.00,0.0448
3208.00,0.0448
3207.00,0.0448
3206.00,0.0448
3205.00,0.0449
3204.00,0.0449
3203.00,0.0449
3202.00,0.0449
3201.00,0.0449
3200.00,0.0449
3199.00,0.0449
3198.00,0.0449
3197.00,0.0449
3196.00,0.0449
3195.00,0.0449
3194.00,0.0449
3193.00,0.0449
3192.00,0.0449
3191.00,0.0449
3190.00,0.0449
3189.00,0.0448
3188.00,0.0447
3187.00,0.0447
3186.00,0.0447
3185.00,0.0447
3184.00,0.0448
3183.00,0.0448
3182.00,0.0449
3181.00,0.0449
3180.00,0.0449
3179.00,0.0448
3178.00,0.0447
3177.00,0.0447
3176.00,0.0447
3175.00,0.0447
3174.00,0.0448
3173.00,0.0448
3172.00,0.0448
3171.00,0.0448
3170.00,0.0448
3169.00,0.0448
3168.00,0.0448
3167.00,0.0448
3166.00,0.0448
3165.00,0.0449
3164.00,0.0450
3163.00,0.0450
3162.00,0.0449
3161.00,0.0448
3160.00,0.0447
3159.00,0.0446
3158.00,0.0445
3157.00,0.0445
3156.00,0.0446
3155.00,0.0447
3154.00,0.0448
3153.00,0.0449
3152.00,0.0449
3151.00,0.0448
3150.00,0.0448
3149.00,0.0447
3148.00,0.0447
3147.00,0.0447
3146.00,0.0448
3145.00,0.0448
3144.00,0.0447
3143.00,0.0447
3142.00,0.0447
3141.00,0.0447
3140.00,0.0447
3139.00,0.0447
3138.00,0.0448
3137.00,0.0448
3136.00,0.0448
3135.00,0.0448
3134.00,0.0448
3133.00,0.0448
3132.00,0.0448
3131.00,0.0448
3130.00,0.0448
3129.00,0.0448
3128.00,0.0448
3127.00,0.0447
3126.00,0.0447
3125.00,0.0447
3124.00,0.0447
3123.00,0.0447
3122.00,0.0447
3121.00,0.0447
3120.00,0.0447
3119.00,0.0447
3118.00,0.0447
3117.00,0.0447
3116.00,0.0447
3115.00,0.0447
3114.00,0.0447
3113.00,0.0447
3112.00,0.0447
3111.00,0.0447
3110.00,0.0447
3109.00,0.0446
3108.00,0.0446
3107.00,0.0447
3106.00,0.0448
3105.00,0.0448
3104.00,0.0448
3103.00,0.0448
3102.00,0.0447
3101.00,0.0447
3100.00,0.0447
3099.00,0.0446
3098.00,0.0446
3097.00,0.0447
3096.00,0.0448
3095.00,0.0449
3094.00,0.0449
3093.00,0.0450
3092.00,0.0450
3091.00,0.0449
3090.00,0.0448
3089.00,0.0447
3088.00,0.0446
3087.00,0.0446
3086.00,0.0446
3085.00,0.0447
3084.00,0.0448
3083.00,0.0448
3082.00,0.0448
3081.00,0.0448
3080.00,0.0449
3079.00,0.0448
3078.00,0.0448
3077.00,0.0448
3076.00,0.0448
3075.00,0.0448
3074.00,0.0449
3073.00,0.0449
3072.00,0.0450
3071.00,0.0450
3070.00,0.0450
3069.00,0.0450
3068.00,0.0450
3067.00,0.0450
3066.00,0.0449
3065.00,0.0449
3064.00,0.0448
3063.00,0.0447
3062.00,0.0447
3061.00,0.0448
3060.00,0.0448
3059.00,0.0448
3058.00,0.0448
3057.00,0.0448
3056.00,0.0448
3055.00,0.0448
3054.00,0.0448
3053.00,0.0448
3052.00,0.0448
3051.00,0.0449
3050.00,0.0449
3049.00,0.0450
3048.00,0.0450
3047.00,0.0451
3046.00,0.0451
3045.00,0.0451
3044.00,0.0450
3043.00,0.0449
3042.00,0.0448
3041.00,0.0447
3040.00,0.0447
3039.00,0.0447
3038.00,0.0448
3037.00,0.0448
3036.00,0.0449
3035.00,0.0449
3034.00,0.0449
3033.00,0.0449
3032.00,0.0448
3031.00,0.0448
3030.00,0.0448
3029.00,0.0447
3028.00,0.0447
3027.00,0.0447
3026.00,0.0447
3025.00,0.0447
3024.00,0.0447
3023.00,0.0447
3022.00,0.0447
3021.00,0.0447
3020.00,0.0446
3019.00,0.0446
3018.00,0.0445
3017.00,0.0445
3016.00,0.0445
3015.00,0.0445
3014.00,0.0445
3013.00,0.0444
3012.00,0.0444
3011.00,0.0443
3010.00,0.0443
3009.00,0.0442
3008.00,0.0440
3007.00,0.0439
3006.00,0.0438
3005.00,0.0437
3004.00,0.0437
3003.00,0.0436
3002.00,0.0435
3001.00,0.0434
3000.00,0.0433
2999.00,0.0432
2998.00,0.0430
2997.00,0.0429
2996.00,0.0428
2995.00,0.0428
2994.00,0.0428
2993.00,0.0428
2992.00,0.0428
2991.00,0.0427
2990.00,0.0426
2989.00,0.0426
2988.00,0.0425
2987.00,0.0423
2986.00,0.0421
2985.00,0.0418
2984.00,0.0415
2983.00,0.0412
2982.00,0.0411
2981.00,0.0411
2980.00,0.0412
2979.00,0.0413
2978.00,0.0415
2977.00,0.0417
2976.00,0.0419
2975.00,0.0419
2974.00,0.0419
2973.00,0.0418
2972.00,0.0417
2971.00,0.0418
2970.00,0.0419
2969.00,0.0421
2968.00,0.0423
2967.00,0.0425
2966.00,0.0425
2965.00,0.0426
2964.00,0.0427
2963.00,0.0427
2962.00,0.0428
2961.00,0.0429
2960.00,0.0429
2959.00,0.0429
2958.00,0.0430
2957.00,0.0430
2956.00,0.0431
2955.00,0.0432
2954.00,0.0433
2953.00,0.0434
2952.00,0.0435
2951.00,0.0435
2950.00,0.0436
2949.00,0.0437
2948.00,0.0437
2947.00,0.0437
2946.00,0.0437
2945.00,0.0438
2944.00,0.0438
2943.00,0.0440
2942.00,0.0440
2941.00,0.0441
2940.00,0.0441
2939.00,0.0440
2938.00,0.0440
2937.00,0.0441
2936.00,0.0441
2935.00,0.0442
2934.00,0.0442
2933.00,0.0442
2932.00,0.0443
2931.00,0.0443
2930.00,0.0443
2929.00,0.0444
2928.00,0.0444
2927.00,0.0445
2926.00,0.0445
2925.00,0.0445
2924.00,0.0445
2923.00,0.0445
2922.00,0.0445
2921.00,0.0445
2920.00,0.0444
2919.00,0.0442
2918.00,0.0441
2917.00,0.0441
2916.00,0.0441
2915.00,0.0442
2914.00,0.0442
2913.00,0.0442
2912.00,0.0442
2911.00,0.0443
2910.00,0.0443
2909.00,0.0443
2908.00,0.0442
2907.00,0.0442
2906.00,0.0442
2905.00,0.0441
2904.00,0.0441
2903.00,0.0441
2902.00,0.0440
2901.00,0.0441
2900.00,0.0440
2899.00,0.0440
2898.00,0.0440
2897.00,0.0440
2896.00,0.0440
2895.00,0.0440
2894.00,0.0440
2893.00,0.0439
2892.00,0.0439
2891.00,0.0439
2890.00,0.0439
2889.00,0.0439
2888.00,0.0439
2887.00,0.0439
2886.00,0.0439
2885.00,0.0438
2884.00,0.0438
2883.00,0.0437
2882.00,0.0437
2881.00,0.0438
2880.00,0.0438
2879.00,0.0439
2878.00,0.0440
2877.00,0.0441
2876.00,0.0441
2875.00,0.0441
2874.00,0.0440
2873.00,0.0440
2872.00,0.0439
2871.00,0.0439
2870.00,0.0440
2869.00,0.0440
2868.00,0.0440
2867.00,0.0440
2866.00,0.0440
2865.00,0.0441
2864.00,0.0441
2863.00,0.0442
2862.00,0.0442
2861.00,0.0443
2860.00,0.0444
2859.00,0.0445
2858.00,0.0447
2857.00,0.0447
2856.00,0.0448
2855.00,0.0447
2854.00,0.0447
2853.00,0.0446
2852.00,0.0446
2851.00,0.0447
2850.00,0.0447
2849.00,0.0447
2848.00,0.0447
2847.00,0.0447
2846.00,0.0447
2845.00,0.0447
2844.00,0.0447
2843.00,0.0446
2842.00,0.0446
2841.00,0.0446
2840.00,0.0445
2839.00,0.0444
2838.00,0.0444
2837.00,0.0444
2836.00,0.0445
2835.00,0.0445
2834.00,0.0446
2833.00,0.0445
2832.00,0.0444
2831.00,0.0444
2830.00,0.0443
2829.00,0.0443
2828.00,0.0444
2827.00,0.0444
2826.00,0.0444
2825.00,0.0444
2824.00,0.0444
2823.00,0.0443
2822.00,0.0443
2821.00,0.0443
2820.00,0.0442
2819.00,0.0442
2818.00,0.0442
2817.00,0.0442
2816.00,0.0442
2815.00,0.0442
2814.00,0.0441
2813.00,0.0441
2812.00,0.0441
2811.00,0.0441
2810.00,0.0441
2809.00,0.0441
2808.00,0.0441
2807.00,0.0441
2806.00,0.0441
2805.00,0.0442
2804.00,0.0442
2803.00,0.0441
2802.00,0.0441
2801.00,0.0441
2800.00,0.0441
2799.00,0.0442
2798.00,0.0442
2797.00,0.0441
2796.00,0.0441
2795.00,0.0441
2794.00,0.0441
2793.00,0.0441
2792.00,0.0441
2791.00,0.0441
2790.00,0.0442
2789.00,0.0442
2788.00,0.0442
2787.00,0.0441
2786.00,0.0441
2785.00,0.0440
2784.00,0.0440
2783.00,0.0440
2782.00,0.0439
2781.00,0.0439
2780.00,0.0438
2779.00,0.0438
2778.00,0.0438
2777.00,0.0439
2776.00,0.0439
2775.00,0.0439
2774.00,0.0439
2773.00,0.0439
2772.00,0.0439
2771.00,0.0438
2770.00,0.0438
2769.00,0.0437
2768.00,0.0437
2767.00,0.0437
2766.00,0.0437
2765.00,0.0438
2764.00,0.0438
2763.00,0.0438
2762.00,0.0438
2761.00,0.0438
2760.00,0.0438
2759.00,0.0438
2758.00,0.0438
2757.00,0.0438
2756.00,0.0437
2755.00,0.0437
2754.00,0.0437
2753.00,0.0437
2752.00,0.0437
2751.00,0.0438
2750.00,0.0438
2749.00,0.0438
2748.00,0.0438
2747.00,0.0438
2746.00,0.0438
2745.00,0.0438
2744.00,0.0438
2743.00,0.0438
2742.00,0.0438
2741.00,0.0438
2740.00,0.0437
2739.00,0.0437
2738.00,0.0436
2737.00,0.0436
2736.00,0.0436
2735.00,0.0436
2734.00,0.0437
2733.00,0.0437
2732.00,0.0437
2731.00,0.0437
2730.00,0.0436
2729.00,0.0436
2728.00,0.0436
2727.00,0.0436
2726.00,0.0436
2725.00,0.0436
2724.00,0.0436
2723.00,0.0436
2722.00,0.0436
2721.00,0.0436
2720.00,0.0436
2719.00,0.0436
2718.00,0.0436
2717.00,0.0437
2716.00,0.0437
2715.00,0.0437
2714.00,0.0436
2713.00,0.0436
2712.00,0.0436
2711.00,0.0436
2710.00,0.0436
2709.00,0.0436
2708.00,0.0436
2707.00,0.0435
2706.00,0.0435
2705.00,0.0435
2704.00,0.0435
2703.00,0.0435
2702.00,0.0435
2701.00,0.0435
2700.00,0.0435
2699.00,0.0435
2698.00,0.0435
2697.00,0.0435
2696.00,0.0435
2695.00,0.0435
2694.00,0.0436
2693.00,0.0436
2692.00,0.0436
2691.00,0.0435
2690.00,0.0435
2689.00,0.0435
2688.00,0.0435
2687.00,0.0435
2686.00,0.0435
2685.00,0.0435
2684.00,0.0435
2683.00,0.0435
2682.00,0.0435
2681.00,0.0435
2680.00,0.0435
2679.00,0.0434
2678.00,0.0433
2677.00,0.0433
2676.00,0.0433
2675.00,0.0433
2674.00,0.0433
2673.00,0.0434
2672.00,0.0434
2671.00,0.0434
2670.00,0.0434
2669.00,0.0433
2668.00,0.0433
2667.00,0.0433
2666.00,0.0433
2665.00,0.0433
2664.00,0.0433
2663.00,0.0434
2662.00,0.0434
2661.00,0.0434
2660.00,0.0434
2659.00,0.0434
2658.00,0.0435
2657.00,0.0435
2656.00,0.0435
2655.00,0.0435
2654.00,0.0435
2653.00,0.0435
2652.00,0.0435
2651.00,0.0435
2650.00,0.0435
2649.00,0.0435
2648.00,0.0435
2647.00,0.0434
2646.00,0.0434
2645.00,0.0435
2644.00,0.0435
2643.00,0.0436
2642.00,0.0436
2641.00,0.0436
2640.00,0.0436
2639.00,0.0436
2638.00,0.0436
2637.00,0.0436
2636.00,0.0436
2635.00,0.0436
2634.00,0.0436
2633.00,0.0436
2632.00,0.0436
2631.00,0.0436
2630.00,0.0436
2629.00,0.0435
2628.00,0.0434
2627.00,0.0434
2626.00,0.0435
2625.00,0.0436
2624.00,0.0437
2623.00,0.0437
2622.00,0.0438
2621.00,0.0438
2620.00,0.0438
2619.00,0.0438
2618.00,0.0438
2617.00,0.0438
2616.00,0.0438
2615.00,0.0437
2614.00,0.0436
2613.00,0.0437
2612.00,0.0437
2611.00,0.0438
2610.00,0.0438
2609.00,0.0437
2608.00,0.0437
2607.00,0.0437
2606.00,0.0437
2605.00,0.0438
2604.00,0.0439
2603.00,0.0439
2602.00,0.0439
2601.00,0.0439
2600.00,0.0438
2599.00,0.0438
2598.00,0.0437
2597.00,0.0437
2596.00,0.0437
2595.00,0.0437
2594.00,0.0437
2593.00,0.0438
2592.00,0.0439
2591.00,0.0439
2590.00,0.0439
2589.00,0.0439
2588.00,0.0439
2587.00,0.0438
2586.00,0.0438
2585.00,0.0437
2584.00,0.0437
2583.00,0.0437
2582.00,0.0438
2581.00,0.0439
2580.00,0.0439
2579.00,0.0440
2578.00,0.0440
2577.00,0.0440
2576.00,0.0439
2575.00,0.0438
2574.00,0.0438
2573.00,0.0438
2572.00,0.0438
2571.00,0.0438
2570.00,0.0438
2569.00,0.0438
2568.00,0.0438
2567.00,0.0439
2566.00,0.0440
2565.00,0.0441
2564.00,0.0441
2563.00,0.0441
2562.00,0.0441
2561.00,0.0442
2560.00,0.0442
2559.00,0.0442
2558.00,0.0442
2557.00,0.0442
2556.00,0.0442
2555.00,0.0441
2554.00,0.0441
2553.00,0.0440
2552.00,0.0440
2551.00,0.0439
2550.00,0.0438
2549.00,0.0437
2548.00,0.0436
2547.00,0.0436
2546.00,0.0437
2545.00,0.0438
2544.00,0.0438
2543.00,0.0438
2542.00,0.0437
2541.00,0.0437
2540.00,0.0436
2539.00,0.0436
2538.00,0.0436
2537.00,0.0435
2536.00,0.0436
2535.00,0.0436
2534.00,0.0438
2533.00,0.0439
2532.00,0.0439
2531.00,0.0439
2530.00,0.0438
2529.00,0.0438
2528.00,0.0437
2527.00,0.0437
2526.00,0.0437
2525.00,0.0437
2524.00,0.0437
2523.00,0.0437
2522.00,0.0438
2521.00,0.0439
2520.00,0.0439
2519.00,0.0440
2518.00,0.0440
2517.00,0.0441
2516.00,0.0441
2515.00,0.0440
2514.00,0.0439
2513.00,0.0438
2512.00,0.0437
2511.00,0.0438
2510.00,0.0439
2509.00,0.0440
2508.00,0.0441
2507.00,0.0441
2506.00,0.0440
2505.00,0.0440
2504.00,0.0439
2503.00,0.0439
2502.00,0.0439
2501.00,0.0440
2500.00,0.0440
2499.00,0.0440
2498.00,0.0441
2497.00,0.0441
2496.00,0.0441
2495.00,0.0441
2494.00,0.0441
2493.00,0.0441
2492.00,0.0441
2491.00,0.0441
2490.00,0.0442
2489.00,0.0442
2488.00,0.0442
2487.00,0.0442
2486.00,0.0441
2485.00,0.0440
2484.00,0.0440
2483.00,0.0440
2482.00,0.0441
2481.00,0.0441
2480.00,0.0442
2479.00,0.0442
2478.00,0.0442
2477.00,0.0442
2476.00,0.0441
2475.00,0.0440
2474.00,0.0440
2473.00,0.0440
2472.00,0.0440
2471.00,0.0440
2470.00,0.0440
2469.00,0.0440
2468.00,0.0439
2467.00,0.0439
2466.00,0.0439
2465.00,0.0439
2464.00,0.0439
2463.00,0.0439
2462.00,0.0440
2461.00,0.0440
2460.00,0.0441
2459.00,0.0442
2458.00,0.0442
2457.00,0.0442
2456.00,0.0442
2455.00,0.0442
2454.00,0.0443
2453.00,0.0443
2452.00,0.0444
2451.00,0.0444
2450.00,0.0443
2449.00,0.0443
2448.00,0.0443
2447.00,0.0443
2446.00,0.0442
2445.00,0.0442
2444.00,0.0441
2443.00,0.0441
2442.00,0.0441
2441.00,0.0441
2440.00,0.0441
2439.00,0.0442
2438.00,0.0442
2437.00,0.0442
2436.00,0.0442
2435.00,0.0441
2434.00,0.0441
2433.00,0.0441
2432.00,0.0441
2431.00,0.0441
2430.00,0.0442
2429.00,0.0442
2428.00,0.0442
2427.00,0.0441
2426.00,0.0441
2425.00,0.0441
2424.00,0.0441
2423.00,0.0441
2422.00,0.0441
2421.00,0.0441
2420.00,0.0441
2419.00,0.0441
2418.00,0.0441
2417.00,0.0441
2416.00,0.0440
2415.00,0.0441
2414.00,0.0441
2413.00,0.0441
2412.00,0.0441
2411.00,0.0441
2410.00,0.0441
2409.00,0.0441
2408.00,0.0441
2407.00,0.0441
2406.00,0.0440
2405.00,0.0441
2404.00,0.0441
2403.00,0.0441
2402.00,0.0441
2401.00,0.0440
2400.00,0.0440
2399.00,0.0441
2398.00,0.0440
2397.00,0.0440
2396.00,0.0439
2395.00,0.0439
2394.00,0.0439
2393.00,0.0439
2392.00,0.0439
2391.00,0.0439
2390.00,0.0439
2389.00,0.0439
2388.00,0.0438
2387.00,0.0438
2386.00,0.0438
2385.00,0.0438
2384.00,0.0437
2383.00,0.0436
2382.00,0.0436
2381.00,0.0436
2380.00,0.0437
2379.00,0.0438
2378.00,0.0438
2377.00,0.0437
2376.00,0.0436
2375.00,0.0436
2374.00,0.0436
2373.00,0.0437
2372.00,0.0438
2371.00,0.0437
2370.00,0.0435
2369.00,0.0432
2368.00,0.0431
2367.00,0.0433
2366.00,0.0436
2365.00,0.0439
2364.00,0.0438
2363.00,0.0435
2362.00,0.0433
2361.00,0.0433
2360.00,0.0434
2359.00,0.0436
2358.00,0.0437
2357.00,0.0439
2356.00,0.0440
2355.00,0.0439
2354.00,0.0438
2353.00,0.0436
2352.00,0.0436
2351.00,0.0436
2350.00,0.0436
2349.00,0.0436
2348.00,0.0434
2347.00,0.0430
2346.00,0.0428
2345.00,0.0428
2344.00,0.0432
2343.00,0.0435
2342.00,0.0438
2341.00,0.0440
2340.00,0.0441
2339.00,0.0439
2338.00,0.0436
2337.00,0.0434
2336.00,0.0434
2335.00,0.0435
2334.00,0.0437
2333.00,0.0438
2332.00,0.0438
2331.00,0.0438
2330.00,0.0438
2329.00,0.0437
2328.00,0.0438
2327.00,0.0438
2326.00,0.0439
2325.00,0.0439
2324.00,0.0439
2323.00,0.0439
2322.00,0.0440
2321.00,0.0441
2320.00,0.0441
2319.00,0.0440
2318.00,0.0439
2317.00,0.0438
2316.00,0.0438
2315.00,0.0437
2314.00,0.0438
2313.00,0.0438
2312.00,0.0438
2311.00,0.0439
2310.00,0.0440
2309.00,0.0441
2308.00,0.0442
2307.00,0.0441
2306.00,0.0441
2305.00,0.0440
2304.00,0.0439
2303.00,0.0438
2302.00,0.0437
2301.00,0.0437
2300.00,0.0437
2299.00,0.0437
2298.00,0.0438
2297.00,0.0438
2296.00,0.0438
2295.00,0.0438
2294.00,0.0439
2293.00,0.0440
2292.00,0.0441
2291.00,0.0442
2290.00,0.0442
2289.00,0.0441
2288.00,0.0442
2287.00,0.0443
2286.00,0.0444
2285.00,0.0445
2284.00,0.0446
2283.00,0.0447
2282.00,0.0447
2281.00,0.0447
2280.00,0.0445
2279.00,0.0445
2278.00,0.0445
2277.00,0.0445
2276.00,0.0445
2275.00,0.0444
2274.00,0.0443
2273.00,0.0442
2272.00,0.0442
2271.00,0.0442
2270.00,0.0443
2269.00,0.0443
2268.00,0.0443
2267.00,0.0442
2266.00,0.0442
2265.00,0.0443
2264.00,0.0444
2263.00,0.0445
2262.00,0.0446
2261.00,0.0446
2260.00,0.0447
2259.00,0.0446
2258.00,0.0445
2257.00,0.0442
2256.00,0.0440
2255.00,0.0440
2254.00,0.0441
2253.00,0.0442
2252.00,0.0443
2251.00,0.0443
2250.00,0.0444
2249.00,0.0444
2248.00,0.0443
2247.00,0.0443
2246.00,0.0443
2245.00,0.0444
2244.00,0.0445
2243.00,0.0445
2242.00,0.0444
2241.00,0.0444
2240.00,0.0443
2239.00,0.0442
2238.00,0.0443
2237.00,0.0443
2236.00,0.0444
2235.00,0.0444
2234.00,0.0445
2233.00,0.0445
2232.00,0.0445
2231.00,0.0443
2230.00,0.0442
2229.00,0.0442
2228.00,0.0443
2227.00,0.0443
2226.00,0.0444
2225.00,0.0443
2224.00,0.0441
2223.00,0.0440
2222.00,0.0439
2221.00,0.0439
2220.00,0.0440
2219.00,0.0441
2218.00,0.0441
2217.00,0.0441
2216.00,0.0442
2215.00,0.0443
2214.00,0.0444
2213.00,0.0443
2212.00,0.0442
2211.00,0.0440
2210.00,0.0439
2209.00,0.0440
2208.00,0.0442
2207.00,0.0443
2206.00,0.0442
2205.00,0.0442
2204.00,0.0442
2203.00,0.0442
2202.00,0.0443
2201.00,0.0443
2200.00,0.0442
2199.00,0.0441
2198.00,0.0440
2197.00,0.0441
2196.00,0.0441
2195.00,0.0442
2194.00,0.0441
2193.00,0.0440
2192.00,0.0438
2191.00,0.0435
2190.00,0.0433
2189.00,0.0433
2188.00,0.0434
2187.00,0.0438
2186.00,0.0442
2185.00,0.0443
2184.00,0.0442
2183.00,0.0439
2182.00,0.0438
2181.00,0.0438
2180.00,0.0440
2179.00,0.0441
2178.00,0.0442
2177.00,0.0443
2176.00,0.0444
2175.00,0.0444
2174.00,0.0444
2173.00,0.0443
2172.00,0.0442
2171.00,0.0442
2170.00,0.0443
2169.00,0.0444
2168.00,0.0445
2167.00,0.0445
2166.00,0.0446
2165.00,0.0448
2164.00,0.0450
2163.00,0.0451
2162.00,0.0451
2161.00,0.0449
2160.00,0.0444
2159.00,0.0439
2158.00,0.0435
2157.00,0.0434
2156.00,0.0434
2155.00,0.0435
2154.00,0.0437
2153.00,0.0439
2152.00,0.0440
2151.00,0.0439
2150.00,0.0437
2149.00,0.0436
2148.00,0.0436
2147.00,0.0437
2146.00,0.0439
2145.00,0.0441
2144.00,0.0443
2143.00,0.0444
2142.00,0.0445
2141.00,0.0445
2140.00,0.0445
2139.00,0.0443
2138.00,0.0441
2137.00,0.0439
2136.00,0.0437
2135.00,0.0437
2134.00,0.0437
2133.00,0.0438
2132.00,0.0438
2131.00,0.0438
2130.00,0.0438
2129.00,0.0440
2128.00,0.0442
2127.00,0.0442
2126.00,0.0442
2125.00,0.0441
2124.00,0.0440
2123.00,0.0439
2122.00,0.0439
2121.00,0.0438
2120.00,0.0438
2119.00,0.0437
2118.00,0.0437
2117.00,0.0436
2116.00,0.0435
2115.00,0.0434
2114.00,0.0432
2113.00,0.0431
2112.00,0.0432
2111.00,0.0433
2110.00,0.0436
2109.00,0.0437
2108.00,0.0439
2107.00,0.0439
2106.00,0.0440
2105.00,0.0440
2104.00,0.0439
2103.00,0.0438
2102.00,0.0437
2101.00,0.0437
2100.00,0.0436
2099.00,0.0435
2098.00,0.0434
2097.00,0.0435
2096.00,0.0435
2095.00,0.0436
2094.00,0.0436
2093.00,0.0437
2092.00,0.0436
2091.00,0.0435
2090.00,0.0434
2089.00,0.0434
2088.00,0.0435
2087.00,0.0435
2086.00,0.0436
2085.00,0.0438
2084.00,0.0439
2083.00,0.0439
2082.00,0.0439
2081.00,0.0438
2080.00,0.0438
2079.00,0.0438
2078.00,0.0438
2077.00,0.0437
2076.00,0.0437
2075.00,0.0438
2074.00,0.0438
2073.00,0.0438
2072.00,0.0439
2071.00,0.0440
2070.00,0.0440
2069.00,0.0438
2068.00,0.0436
2067.00,0.0433
2066.00,0.0432
2065.00,0.0433
2064.00,0.0434
2063.00,0.0436
2062.00,0.0438
2061.00,0.0439
2060.00,0.0438
2059.00,0.0436
2058.00,0.0435
2057.00,0.0434
2056.00,0.0434
2055.00,0.0434
2054.00,0.0436
2053.00,0.0437
2052.00,0.0438
2051.00,0.0437
2050.00,0.0435
2049.00,0.0433
2048.00,0.0433
2047.00,0.0434
2046.00,0.0437
2045.00,0.0439
2044.00,0.0441
2043.00,0.0442
2042.00,0.0441
2041.00,0.0439
2040.00,0.0438
2039.00,0.0437
2038.00,0.0438
2037.00,0.0441
2036.00,0.0443
2035.00,0.0443
2034.00,0.0442
2033.00,0.0442
2032.00,0.0444
2031.00,0.0446
2030.00,0.0446
2029.00,0.0444
2028.00,0.0441
2027.00,0.0438
2026.00,0.0437
2025.00,0.0436
2024.00,0.0434
2023.00,0.0432
2022.00,0.0430
2021.00,0.0429
2020.00,0.0429
2019.00,0.0428
2018.00,0.0427
2017.00,0.0428
2016.00,0.0429
2015.00,0.0430
2014.00,0.0432
2013.00,0.0432
2012.00,0.0433
2011.00,0.0433
2010.00,0.0435
2009.00,0.0436
2008.00,0.0436
2007.00,0.0435
2006.00,0.0433
2005.00,0.0431
2004.00,0.0431
2003.00,0.0432
2002.00,0.0435
2001.00,0.0438
2000.00,0.0438
1999.00,0.0437
1998.00,0.0435
1997.00,0.0435
1996.00,0.0436
1995.00,0.0438
1994.00,0.0441
1993.00,0.0442
1992.00,0.0441
1991.00,0.0438
1990.00,0.0434
1989.00,0.0432
1988.00,0.0431
1987.00,0.0432
1986.00,0.0434
1985.00,0.0436
1984.00,0.0437
1983.00,0.0437
1982.00,0.0437
1981.00,0.0435
1980.00,0.0433
1979.00,0.0429
1978.00,0.0424
1977.00,0.0421
1976.00,0.0422
1975.00,0.0426
1974.00,0.0430
1973.00,0.0433
1972.00,0.0432
1971.00,0.0430
1970.00,0.0431
1969.00,0.0433
1968.00,0.0435
1967.00,0.0434
1966.00,0.0432
1965.00,0.0430
1964.00,0.0431
1963.00,0.0432
1962.00,0.0433
1961.00,0.0434
1960.00,0.0435
1959.00,0.0435
1958.00,0.0434
1957.00,0.0433
1956.00,0.0431
1955.00,0.0430
1954.00,0.0430
1953.00,0.0430
1952.00,0.0430
1951.00,0.0428
1950.00,0.0427
1949.00,0.0426
1948.00,0.0426
1947.00,0.0426
1946.00,0.0426
1945.00,0.0425
1944.00,0.0424
1943.00,0.0423
1942.00,0.0422
1941.00,0.0422
1940.00,0.0421
1939.00,0.0420
1938.00,0.0420
1937.00,0.0420
1936.00,0.0420
1935.00,0.0420
1934.00,0.0420
1933.00,0.0420
1932.00,0.0421
1931.00,0.0422
1930.00,0.0425
1929.00,0.0427
1928.00,0.0428
1927.00,0.0428
1926.00,0.0427
1925.00,0.0427
1924.00,0.0426
1923.00,0.0425
1922.00,0.0425
1921.00,0.0424
1920.00,0.0423
1919.00,0.0421
1918.00,0.0420
1917.00,0.0419
1916.00,0.0419
1915.00,0.0419
1914.00,0.0420
1913.00,0.0420
1912.00,0.0420
1911.00,0.0420
1910.00,0.0419
1909.00,0.0418
1908.00,0.0417
1907.00,0.0417
1906.00,0.0418
1905.00,0.0418
1904.00,0.0418
1903.00,0.0418
1902.00,0.0418
1901.00,0.0417
1900.00,0.0417
1899.00,0.0417
1898.00,0.0417
1897.00,0.0416
1896.00,0.0414
1895.00,0.0413
1894.00,0.0412
1893.00,0.0413
1892.00,0.0414
1891.00,0.0415
1890.00,0.0415
1889.00,0.0415
1888.00,0.0414
1887.00,0.0414
1886.00,0.0414
1885.00,0.0414
1884.00,0.0414
1883.00,0.0414
1882.00,0.0413
1881.00,0.0413
1880.00,0.0413
1879.00,0.0413
1878.00,0.0412
1877.00,0.0412
1876.00,0.0412
1875.00,0.0412
1874.00,0.0413
1873.00,0.0413
1872.00,0.0413
1871.00,0.0413
1870.00,0.0412
1869.00,0.0411
1868.00,0.0410
1867.00,0.0409
1866.00,0.0410
1865.00,0.0410
1864.00,0.0410
1863.00,0.0409
1862.00,0.0408
1861.00,0.0407
1860.00,0.0406
1859.00,0.0406
1858.00,0.0406
1857.00,0.0407
1856.00,0.0407
1855.00,0.0406
1854.00,0.0406
1853.00,0.0405
1852.00,0.0405
1851.00,0.0405
1850.00,0.0405
1849.00,0.0405
1848.00,0.0405
1847.00,0.0405
1846.00,0.0406
1845.00,0.0407
1844.00,0.0406
1843.00,0.0404
1842.00,0.0403
1841.00,0.0403
1840.00,0.0403
1839.00,0.0402
1838.00,0.0402
1837.00,0.0402
1836.00,0.0402
1835.00,0.0401
1834.00,0.0401
1833.00,0.0401
1832.00,0.0402
1831.00,0.0402
1830.00,0.0400
1829.00,0.0399
1828.00,0.0399
1827.00,0.0399
1826.00,0.0399
1825.00,0.0398
1824.00,0.0397
1823.00,0.0397
1822.00,0.0397
1821.00,0.0397
1820.00,0.0396
1819.00,0.0395
1818.00,0.0394
1817.00,0.0394
1816.00,0.0393
1815.00,0.0392
1814.00,0.0392
1813.00,0.0392
1812.00,0.0391
1811.00,0.0391
1810.00,0.0390
1809.00,0.0391
1808.00,0.0391
1807.00,0.0390
1806.00,0.0389
1805.00,0.0389
1804.00,0.0388
1803.00,0.0388
1802.00,0.0388
1801.00,0.0387
1800.00,0.0386
1799.00,0.0385
1798.00,0.0385
1797.00,0.0384
1796.00,0.0384
1795.00,0.0384
1794.00,0.0384
1793.00,0.0384
1792.00,0.0384
1791.00,0.0383
1790.00,0.0382
1789.00,0.0382
1788.00,0.0381
1787.00,0.0381
1786.00,0.0381
1785.00,0.0381
1784.00,0.0380
1783.00,0.0380
1782.00,0.0380
1781.00,0.0378
1780.00,0.0377
1779.00,0.0376
1778.00,0.0377
1777.00,0.0377
1776.00,0.0377
1775.00,0.0378
1774.00,0.0378
1773.00,0.0377
1772.00,0.0375
1771.00,0.0374
1770.00,0.0375
1769.00,0.0377
1768.00,0.0378
1767.00,0.0377
1766.00,0.0376
1765.00,0.0377
1764.00,0.0378
1763.00,0.0378
1762.00,0.0377
1761.00,0.0376
1760.00,0.0376
1759.00,0.0377
1758.00,0.0377
1757.00,0.0377
1756.00,0.0377
1755.00,0.0378
1754.00,0.0380
1753.00,0.0381
1752.00,0.0380
1751.00,0.0379
1750.00,0.0379
1749.00,0.0379
1748.00,0.0380
1747.00,0.0381
1746.00,0.0382
1745.00,0.0383
1744.00,0.0384
1743.00,0.0385
1742.00,0.0386
1741.00,0.0388
1740.00,0.0388
1739.00,0.0388
1738.00,0.0389
1737.00,0.0391
1736.00,0.0393
1735.00,0.0395
1734.00,0.0394
1733.00,0.0391
1732.00,0.0390
1731.00,0.0391
1730.00,0.0392
1729.00,0.0392
1728.00,0.0393
1727.00,0.0394
1726.00,0.0394
1725.00,0.0395
1724.00,0.0395
1723.00,0.0395
1722.00,0.0396
1721.00,0.0397
1720.00,0.0398
1719.00,0.0397
1718.00,0.0397
1717.00,0.0397
1716.00,0.0398
1715.00,0.0399
1714.00,0.0400
1713.00,0.0401
1712.00,0.0402
1711.00,0.0402
1710.00,0.0401
1709.00,0.0401
1708.00,0.0401
1707.00,0.0400
1706.00,0.0400
1705.00,0.0400
1704.00,0.0401
1703.00,0.0405
1702.00,0.0408
1701.00,0.0409
1700.00,0.0405
1699.00,0.0401
1698.00,0.0402
1697.00,0.0405
1696.00,0.0404
1695.00,0.0401
1694.00,0.0399
1693.00,0.0400
1692.00,0.0401
1691.00,0.0400
1690.00,0.0399
1689.00,0.0399
1688.00,0.0400
1687.00,0.0401
1686.00,0.0400
1685.00,0.0399
1684.00,0.0397
1683.00,0.0395
1682.00,0.0396
1681.00,0.0398
1680.00,0.0398
1679.00,0.0399
1678.00,0.0401
1677.00,0.0404
1676.00,0.0406
1675.00,0.0407
1674.00,0.0405
1673.00,0.0404
1672.00,0.0404
1671.00,0.0404
1670.00,0.0404
1669.00,0.0404
1668.00,0.0403
1667.00,0.0403
1666.00,0.0404
1665.00,0.0404
1664.00,0.0405
1663.00,0.0405
1662.00,0.0405
1661.00,0.0406
1660.00,0.0407
1659.00,0.0409
1658.00,0.0410
1657.00,0.0410
1656.00,0.0410
1655.00,0.0409
1654.00,0.0410
1653.00,0.0411
1652.00,0.0407
1651.00,0.0407
1650.00,0.0410
1649.00,0.0411
1648.00,0.0411
1647.00,0.0413
1646.00,0.0414
1645.00,0.0416
1644.00,0.0418
1643.00,0.0420
1642.00,0.0420
1641.00,0.0420
1640.00,0.0420
1639.00,0.0420
1638.00,0.0420
1637.00,0.0422
1636.00,0.0425
1635.00,0.0427
1634.00,0.0427
1633.00,0.0428
1632.00,0.0428
1631.00,0.0428
1630.00,0.0428
1629.00,0.0429
1628.00,0.0429
1627.00,0.0430
1626.00,0.0433
1625.00,0.0435
1624.00,0.0437
1623.00,0.0439
1622.00,0.0440
1621.00,0.0441
1620.00,0.0442
1619.00,0.0443
1618.00,0.0444
1617.00,0.0446
1616.00,0.0446
1615.00,0.0447
1614.00,0.0449
1613.00,0.0451
1612.00,0.0451
1611.00,0.0453
1610.00,0.0454
1609.00,0.0455
1608.00,0.0457
1607.00,0.0458
1606.00,0.0461
1605.00,0.0463
1604.00,0.0464
1603.00,0.0465
1602.00,0.0466
1601.00,0.0466
1600.00,0.0466
1599.00,0.0468
1598.00,0.0469
1597.00,0.0471
1596.00,0.0473
1595.00,0.0476
1594.00,0.0478
1593.00,0.0479
1592.00,0.0480
1591.00,0.0481
1590.00,0.0483
1589.00,0.0484
1588.00,0.0486
1587.00,0.0488
1586.00,0.0490
1585.00,0.0491
1584.00,0.0491
1583.00,0.0493
1582.00,0.0494
1581.00,0.0494
1580.00,0.0494
1579.00,0.0495
1578.00,0.0497
1577.00,0.0499
1576.00,0.0501
1575.00,0.0501
1574.00,0.0501
1573.00,0.0502
1572.00,0.0502
1571.00,0.0502
1570.00,0.0504
1569.00,0.0505
1568.00,0.0506
1567.00,0.0507
1566.00,0.0507
1565.00,0.0506
1564.00,0.0505
1563.00,0.0505
1562.00,0.0505
1561.00,0.0502
1560.00,0.0504
1559.00,0.0514
1558.00,0.0515
1557.00,0.0513
1556.00,0.0513
1555.00,0.0514
1554.00,0.0514
1553.00,0.0513
1552.00,0.0513
1551.00,0.0512
1550.00,0.0512
1549.00,0.0511
1548.00,0.0510
1547.00,0.0509
1546.00,0.0508
1545.00,0.0507
1544.00,0.0506
1543.00,0.0504
1542.00,0.0503
1541.00,0.0505
1540.00,0.0508
1539.00,0.0507
1538.00,0.0505
1537.00,0.0505
1536.00,0.0505
1535.00,0.0505
1534.00,0.0505
1533.00,0.0506
1532.00,0.0506
1531.00,0.0505
1530.00,0.0504
1529.00,0.0504
1528.00,0.0503
1527.00,0.0503
1526.00,0.0502
1525.00,0.0501
1524.00,0.0499
1523.00,0.0498
1522.00,0.0499
1521.00,0.0500
1520.00,0.0501
1519.00,0.0500
1518.00,0.0500
1517.00,0.0499
1516.00,0.0499
1515.00,0.0500
1514.00,0.0499
1513.00,0.0498
1512.00,0.0497
1511.00,0.0495
1510.00,0.0493
1509.00,0.0491
1508.00,0.0491
1507.00,0.0496
1506.00,0.0497
1505.00,0.0496
1504.00,0.0495
1503.00,0.0493
1502.00,0.0491
1501.00,0.0489
1500.00,0.0489
1499.00,0.0489
1498.00,0.0491
1497.00,0.0493
1496.00,0.0494
1495.00,0.0493
1494.00,0.0491
1493.00,0.0490
1492.00,0.0488
1491.00,0.0487
1490.00,0.0488
1489.00,0.0488
1488.00,0.0488
1487.00,0.0488
1486.00,0.0487
1485.00,0.0486
1484.00,0.0485
1483.00,0.0484
1482.00,0.0483
1481.00,0.0482
1480.00,0.0482
1479.00,0.0481
1478.00,0.0481
1477.00,0.0481
1476.00,0.0481
1475.00,0.0481
1474.00,0.0481
1473.00,0.0482
1472.00,0.0483
1471.00,0.0483
1470.00,0.0483
1469.00,0.0484
1468.00,0.0484
1467.00,0.0483
1466.00,0.0483
1465.00,0.0484
1464.00,0.0483
1463.00,0.0482
1462.00,0.0480
1461.00,0.0478
1460.00,0.0476
1459.00,0.0476
1458.00,0.0479
1457.00,0.0484
1456.00,0.0485
1455.00,0.0484
1454.00,0.0482
1453.00,0.0481
1452.00,0.0481
1451.00,0.0482
1450.00,0.0483
1449.00,0.0485
1448.00,0.0486
1447.00,0.0487
1446.00,0.0487
1445.00,0.0487
1444.00,0.0486
1443.00,0.0485
1442.00,0.0484
1441.00,0.0484
1440.00,0.0485
1439.00,0.0487
1438.00,0.0490
1437.00,0.0492
1436.00,0.0493
1435.00,0.0492
1434.00,0.0491
1433.00,0.0489
1432.00,0.0488
1431.00,0.0488
1430.00,0.0487
1429.00,0.0487
1428.00,0.0487
1427.00,0.0487
1426.00,0.0487
1425.00,0.0487
1424.00,0.0487
1423.00,0.0488
1422.00,0.0489
1421.00,0.0489
1420.00,0.0490
1419.00,0.0491
1418.00,0.0492
1417.00,0.0493
1416.00,0.0494
1415.00,0.0493
1414.00,0.0492
1413.00,0.0490
1412.00,0.0489
1411.00,0.0489
1410.00,0.0489
1409.00,0.0489
1408.00,0.0488
1407.00,0.0488
1406.00,0.0487
1405.00,0.0486
1404.00,0.0486
1403.00,0.0486
1402.00,0.0485
1401.00,0.0484
1400.00,0.0483
1399.00,0.0483
1398.00,0.0483
1397.00,0.0484
1396.00,0.0484
1395.00,0.0485
1394.00,0.0485
1393.00,0.0485
1392.00,0.0485
1391.00,0.0486
1390.00,0.0486
1389.00,0.0486
1388.00,0.0487
1387.00,0.0488
1386.00,0.0489
1385.00,0.0488
1384.00,0.0488
1383.00,0.0487
1382.00,0.0488
1381.00,0.0489
1380.00,0.0490
1379.00,0.0491
1378.00,0.0492
1377.00,0.0492
1376.00,0.0493
1375.00,0.0494
1374.00,0.0496
1373.00,0.0497
1372.00,0.0498
1371.00,0.0498
1370.00,0.0499
1369.00,0.0499
1368.00,0.0500
1367.00,0.0500
1366.00,0.0500
1365.00,0.0500
1364.00,0.0500
1363.00,0.0501
1362.00,0.0503
1361.00,0.0505
1360.00,0.0505
1359.00,0.0505
1358.00,0.0506
1357.00,0.0506
1356.00,0.0507
1355.00,0.0508
1354.00,0.0509
1353.00,0.0509
1352.00,0.0509
1351.00,0.0508
1350.00,0.0508
1349.00,0.0508
1348.00,0.0508
1347.00,0.0508
1346.00,0.0509
1345.00,0.0509
1344.00,0.0508
1343.00,0.0508
1342.00,0.0507
1341.00,0.0508
1340.00,0.0510
1339.00,0.0512
1338.00,0.0513
1337.00,0.0514
1336.00,0.0514
1335.00,0.0514
1334.00,0.0514
1333.00,0.0514
1332.00,0.0514
1331.00,0.0514
1330.00,0.0514
1329.00,0.0514
1328.00,0.0514
1327.00,0.0514
1326.00,0.0514
1325.00,0.0514
1324.00,0.0515
1323.00,0.0516
1322.00,0.0517
1321.00,0.0518
1320.00,0.0518
1319.00,0.0518
1318.00,0.0517
1317.00,0.0517
1316.00,0.0516
1315.00,0.0516
1314.00,0.0517
1313.00,0.0518
1312.00,0.0520
1311.00,0.0521
1310.00,0.0522
1309.00,0.0522
1308.00,0.0522
1307.00,0.0522
1306.00,0.0522
1305.00,0.0522
1304.00,0.0523
1303.00,0.0524
1302.00,0.0525
1301.00,0.0525
1300.00,0.0525
1299.00,0.0524
1298.00,0.0524
1297.00,0.0523
1296.00,0.0523
1295.00,0.0523
1294.00,0.0524
1293.00,0.0525
1292.00,0.0526
1291.00,0.0527
1290.00,0.0528
1289.00,0.0528
1288.00,0.0528
1287.00,0.0528
1286.00,0.0528
1285.00,0.0529
1284.00,0.0530
1283.00,0.0531
1282.00,0.0531
1281.00,0.0531
1280.00,0.0530
1279.00,0.0530
1278.00,0.0529
1277.00,0.0529
1276.00,0.0530
1275.00,0.0530
1274.00,0.0531
1273.00,0.0531
1272.00,0.0531
1271.00,0.0531
1270.00,0.0532
1269.00,0.0532
1268.00,0.0532
1267.00,0.0533
1266.00,0.0534
1265.00,0.0534
1264.00,0.0535
1263.00,0.0535
1262.00,0.0534
1261.00,0.0534
1260.00,0.0535
1259.00,0.0537
1258.00,0.0538
1257.00,0.0539
1256.00,0.0538
1255.00,0.0538
1254.00,0.0538
1253.00,0.0539
1252.00,0.0540
1251.00,0.0541
1250.00,0.0541
1249.00,0.0541
1248.00,0.0542
1247.00,0.0543
1246.00,0.0544
1245.00,0.0545
1244.00,0.0546
1243.00,0.0546
1242.00,0.0546
1241.00,0.0546
1240.00,0.0546
1239.00,0.0547
1238.00,0.0548
1237.00,0.0549
1236.00,0.0550
1235.00,0.0550
1234.00,0.0550
1233.00,0.0550
1232.00,0.0550
1231.00,0.0551
1230.00,0.0551
1229.00,0.0551
1228.00,0.0552
1227.00,0.0553
1226.00,0.0554
1225.00,0.0553
1224.00,0.0553
1223.00,0.0553
1222.00,0.0554
1221.00,0.0554
1220.00,0.0555
1219.00,0.0555
1218.00,0.0555
1217.00,0.0555
1216.00,0.0556
1215.00,0.0556
1214.00,0.0557
1213.00,0.0557
1212.00,0.0557
1211.00,0.0558
1210.00,0.0558
1209.00,0.0558
1208.00,0.0558
1207.00,0.0557
1206.00,0.0557
1205.00,0.0557
1204.00,0.0557
1203.00,0.0557
1202.00,0.0557
1201.00,0.0557
1200.00,0.0558
1199.00,0.0558
1198.00,0.0558
1197.00,0.0558
1196.00,0.0558
1195.00,0.0557
1194.00,0.0557
1193.00,0.0557
1192.00,0.0556
1191.00,0.0556
1190.00,0.0556
1189.00,0.0555
1188.00,0.0555
1187.00,0.0555
1186.00,0.0555
1185.00,0.0554
1184.00,0.0554
1183.00,0.0553
1182.00,0.0553
1181.00,0.0552
1180.00,0.0551
1179.00,0.0551
1178.00,0.0551
1177.00,0.0551
1176.00,0.0551
1175.00,0.0552
1174.00,0.0552
1173.00,0.0552
1172.00,0.0552
1171.00,0.0551
1170.00,0.0549
1169.00,0.0548
1168.00,0.0548
1167.00,0.0548
1166.00,0.0548
1165.00,0.0549
1164.00,0.0549
1163.00,0.0549
1162.00,0.0549
1161.00,0.0549
1160.00,0.0550
1159.00,0.0550
1158.00,0.0550
1157.00,0.0550
1156.00,0.0550
1155.00,0.0552
1154.00,0.0552
1153.00,0.0552
1152.00,0.0551
1151.00,0.0551
1150.00,0.0550
1149.00,0.0549
1148.00,0.0548
1147.00,0.0549
1146.00,0.0550
1145.00,0.0551
1144.00,0.0552
1143.00,0.0553
1142.00,0.0554
1141.00,0.0554
1140.00,0.0554
1139.00,0.0554
1138.00,0.0554
1137.00,0.0554
1136.00,0.0554
1135.00,0.0555
1134.00,0.0556
1133.00,0.0557
1132.00,0.0557
1131.00,0.0557
1130.00,0.0558
1129.00,0.0559
1128.00,0.0560
1127.00,0.0560
1126.00,0.0558
1125.00,0.0556
1124.00,0.0557
1123.00,0.0559
1122.00,0.0563
1121.00,0.0565
1120.00,0.0566
1119.00,0.0566
1118.00,0.0566
1117.00,0.0566
1116.00,0.0567
1115.00,0.0569
1114.00,0.0570
1113.00,0.0569
1112.00,0.0569
1111.00,0.0568
1110.00,0.0568
1109.00,0.0569
1108.00,0.0569
1107.00,0.0568
1106.00,0.0567
1105.00,0.0566
1104.00,0.0566
1103.00,0.0567
1102.00,0.0568
1101.00,0.0569
1100.00,0.0570
1099.00,0.0571
1098.00,0.0572
1097.00,0.0573
1096.00,0.0573
1095.00,0.0572
1094.00,0.0571
1093.00,0.0571
1092.00,0.0572
1091.00,0.0573
1090.00,0.0573
1089.00,0.0571
1088.00,0.0570
1087.00,0.0570
1086.00,0.0571
1085.00,0.0572
1084.00,0.0574
1083.00,0.0576
1082.00,0.0578
1081.00,0.0580
1080.00,0.0582
1079.00,0.0584
1078.00,0.0587
1077.00,0.0589
1076.00,0.0588
1075.00,0.0586
1074.00,0.0583
1073.00,0.0582
1072.00,0.0582
1071.00,0.0583
1070.00,0.0583
1069.00,0.0582
1068.00,0.0581
1067.00,0.0581
1066.00,0.0582
1065.00,0.0584
1064.00,0.0586
1063.00,0.0588
1062.00,0.0588
1061.00,0.0586
1060.00,0.0585
1059.00,0.0584
1058.00,0.0585
1057.00,0.0587
1056.00,0.0588
1055.00,0.0589
1054.00,0.0591
1053.00,0.0593
1052.00,0.0595
1051.00,0.0596
1050.00,0.0598
1049.00,0.0601
1048.00,0.0603
1047.00,0.0603
1046.00,0.0602
1045.00,0.0601
1044.00,0.0601
1043.00,0.0600
1042.00,0.0599
1041.00,0.0598
1040.00,0.0597
1039.00,0.0598
1038.00,0.0599
1037.00,0.0601
1036.00,0.0601
1035.00,0.0601
1034.00,0.0600
1033.00,0.0600
1032.00,0.0601
1031.00,0.0602
1030.00,0.0602
1029.00,0.0600
1028.00,0.0599
1027.00,0.0597
1026.00,0.0597
1025.00,0.0597
1024.00,0.0598
1023.00,0.0598
1022.00,0.0598
1021.00,0.0597
1020.00,0.0597
1019.00,0.0596
1018.00,0.0595
1017.00,0.0594
1016.00,0.0594
1015.00,0.0595
1014.00,0.0597
1013.00,0.0598
1012.00,0.0598
1011.00,0.0599
1010.00,0.0599
1009.00,0.0599
1008.00,0.0598
1007.00,0.0597
1006.00,0.0597
1005.00,0.0596
1004.00,0.0597
1003.00,0.0597
1002.00,0.0597
1001.00,0.0596
1000.00,0.0594
999.00,0.0591
998.00,0.0589
997.00,0.0588
996.00,0.0589
995.00,0.0589
994.00,0.0589
993.00,0.0587
992.00,0.0585
991.00,0.0584
990.00,0.0583
989.00,0.0583
988.00,0.0583
987.00,0.0584
986.00,0.0584
985.00,0.0584
984.00,0.0584
983.00,0.0582
982.00,0.0581
981.00,0.0581
980.00,0.0581
979.00,0.0581
978.00,0.0580
977.00,0.0578
976.00,0.0576
975.00,0.0575
974.00,0.0575
973.00,0.0575
972.00,0.0575
971.00,0.0574
970.00,0.0572
969.00,0.0569
968.00,0.0568
967.00,0.0568
966.00,0.0567
965.00,0.0567
964.00,0.0567
963.00,0.0567
962.00,0.0568
961.00,0.0568
960.00,0.0567
959.00,0.0566
958.00,0.0565
957.00,0.0565
956.00,0.0564
955.00,0.0563
954.00,0.0562
953.00,0.0561
952.00,0.0561
951.00,0.0562
950.00,0.0564
949.00,0.0565
948.00,0.0565
947.00,0.0564
946.00,0.0563
945.00,0.0562
944.00,0.0561
943.00,0.0560
942.00,0.0559
941.00,0.0560
940.00,0.0562
939.00,0.0564
938.00,0.0566
937.00,0.0566
936.00,0.0565
935.00,0.0563
934.00,0.0563
933.00,0.0565
932.00,0.0567
931.00,0.0569
930.00,0.0569
929.00,0.0570
928.00,0.0571
927.00,0.0571
926.00,0.0571
925.00,0.0571
924.00,0.0572
923.00,0.0573
922.00,0.0573
921.00,0.0573
920.00,0.0573
919.00,0.0573
918.00,0.0574
917.00,0.0574
916.00,0.0575
915.00,0.0576
914.00,0.0577
913.00,0.0577
912.00,0.0577
911.00,0.0577
910.00,0.0575
909.00,0.0571
908.00,0.0568
907.00,0.0566
906.00,0.0567
905.00,0.0571
904.00,0.0576
903.00,0.0580
902.00,0.0582
901.00,0.0582
900.00,0.0580
899.00,0.0578
898.00,0.0577
897.00,0.0577
896.00,0.0578
895.00,0.0578
894.00,0.0578
893.00,0.0577
892.00,0.0575
891.00,0.0574
890.00,0.0574
889.00,0.0575
888.00,0.0576
887.00,0.0576
886.00,0.0574
885.00,0.0572
884.00,0.0573
883.00,0.0575
882.00,0.0576
881.00,0.0576
880.00,0.0576
879.00,0.0574
878.00,0.0572
877.00,0.0570
876.00,0.0569
875.00,0.0568
874.00,0.0566
873.00,0.0565
872.00,0.0565
871.00,0.0567
870.00,0.0568
869.00,0.0568
868.00,0.0567
867.00,0.0566
866.00,0.0565
865.00,0.0566
864.00,0.0567
863.00,0.0568
862.00,0.0569
861.00,0.0569
860.00,0.0567
859.00,0.0564
858.00,0.0562
857.00,0.0560
856.00,0.0562
855.00,0.0565
854.00,0.0568
853.00,0.0570
852.00,0.0570
851.00,0.0569
850.00,0.0568
849.00,0.0569
848.00,0.0569
847.00,0.0571
846.00,0.0573
845.00,0.0576
844.00,0.0577
843.00,0.0578
842.00,0.0577
841.00,0.0575
840.00,0.0572
839.00,0.0569
838.00,0.0567
837.00,0.0568
836.00,0.0569
835.00,0.0571
834.00,0.0571
833.00,0.0571
832.00,0.0570
831.00,0.0568
830.00,0.0567
829.00,0.0567
828.00,0.0567
827.00,0.0569
826.00,0.0572
825.00,0.0574
824.00,0.0576
823.00,0.0578
822.00,0.0578
821.00,0.0578
820.00,0.0579
819.00,0.0579
818.00,0.0579
817.00,0.0576
816.00,0.0574
815.00,0.0573
814.00,0.0574
813.00,0.0576
812.00,0.0577
811.00,0.0577
810.00,0.0577
809.00,0.0577
808.00,0.0577
807.00,0.0576
806.00,0.0575
805.00,0.0574
804.00,0.0574
803.00,0.0574
802.00,0.0576
801.00,0.0579
800.00,0.0582
799.00,0.0584
798.00,0.0584
797.00,0.0583
796.00,0.0582
795.00,0.0581
794.00,0.0581
793.00,0.0580
792.00,0.0581
791.00,0.0582
790.00,0.0584
789.00,0.0586
788.00,0.0586
787.00,0.0587
786.00,0.0587
785.00,0.0589
784.00,0.0591
783.00,0.0592
782.00,0.0592
781.00,0.0590
780.00,0.0588
779.00,0.0587
778.00,0.0588
777.00,0.0590
776.00,0.0593
775.00,0.0594
774.00,0.0593
773.00,0.0591
772.00,0.0589
771.00,0.0589
770.00,0.0590
769.00,0.0591
768.00,0.0592
767.00,0.0592
766.00,0.0592
765.00,0.0591
764.00,0.0591
763.00,0.0590
762.00,0.0588
761.00,0.0586
760.00,0.0586
759.00,0.0587
758.00,0.0589
757.00,0.0592
756.00,0.0593
755.00,0.0592
754.00,0.0592
753.00,0.0592
752.00,0.0595
751.00,0.0597
750.00,0.0599
749.00,0.0599
748.00,0.0600
747.00,0.0600
746.00,0.0600
745.00,0.0599
744.00,0.0597
743.00,0.0597
742.00,0.0596
741.00,0.0595
740.00,0.0593
739.00,0.0591
738.00,0.0590
737.00,0.0590
736.00,0.0591
735.00,0.0591
734.00,0.0591
733.00,0.0592
732.00,0.0594
731.00,0.0596
730.00,0.0598
729.00,0.0600
728.00,0.0603
727.00,0.0605
726.00,0.0607
725.00,0.0607
724.00,0.0607
723.00,0.0607
722.00,0.0606
721.00,0.0606
720.00,0.0606
719.00,0.0606
718.00,0.0607
717.00,0.0608
716.00,0.0608
715.00,0.0607
714.00,0.0606
713.00,0.0606
712.00,0.0608
711.00,0.0609
710.00,0.0608
709.00,0.0607
708.00,0.0607
707.00,0.0609
706.00,0.0611
705.00,0.0614
704.00,0.0617
703.00,0.0619
702.00,0.0621
701.00,0.0620
700.00,0.0619
699.00,0.0619
698.00,0.0620
697.00,0.0621
696.00,0.0622
695.00,0.0623
694.00,0.0626
693.00,0.0628
692.00,0.0628
691.00,0.0627
690.00,0.0625
689.00,0.0624
688.00,0.0624
687.00,0.0624
686.00,0.0624
685.00,0.0624
684.00,0.0622
683.00,0.0619
682.00,0.0617
681.00,0.0617
680.00,0.0620
679.00,0.0624
678.00,0.0627
677.00,0.0629
676.00,0.0629
675.00,0.0629
674.00,0.0629
673.00,0.0629
672.00,0.0630
671.00,0.0631
670.00,0.0634
669.00,0.0640
668.00,0.0646
667.00,0.0649
666.00,0.0649
665.00,0.0647
664.00,0.0646
663.00,0.0644
662.00,0.0639
661.00,0.0632
660.00,0.0624
659.00,0.0619
658.00,0.0621
657.00,0.0627
656.00,0.0634
655.00,0.0638
654.00,0.0637
653.00,0.0633
652.00,0.0626
651.00,0.0622
650.00,0.0621
