Created as New Dataset,Monday, April 03 2023
cm-1,A
4000.00,0.0108
3999.00,0.0108
3998.00,0.0108
3997.00,0.0108
3996.00,0.0107
3995.00,0.0107
3994.00,0.0107
3993.00,0.0106
3992.00,0.0106
3991.00,0.0106
3990.00,0.0106
3989.00,0.0106
3988.00,0.0106
3987.00,0.0106
3986.00,0.0106
3985.00,0.0106
3984.00,0.0106
3983.00,0.0106
3982.00,0.0106
3981.00,0.0106
3980.00,0.0105
3979.00,0.0105
3978.00,0.0105
3977.00,0.0105
3976.00,0.0105
3975.00,0.0105
3974.00,0.0105
3973.00,0.0104
3972.00,0.0105
3971.00,0.0105
3970.00,0.0105
3969.00,0.0105
3968.00,0.0105
3967.00,0.0104
3966.00,0.0104
3965.00,0.0104
3964.00,0.0104
3963.00,0.0105
3962.00,0.0106
3961.00,0.0105
3960.00,0.0105
3959.00,0.0104
3958.00,0.0103
3957.00,0.0103
3956.00,0.0103
3955.00,0.0103
3954.00,0.0103
3953.00,0.0103
3952.00,0.0103
3951.00,0.0103
3950.00,0.0104
3949.00,0.0104
3948.00,0.0104
3947.00,0.0104
3946.00,0.0103
3945.00,0.0103
3944.00,0.0102
3943.00,0.0101
3942.00,0.0100
3941.00,0.0100
3940.00,0.0100
3939.00,0.0101
3938.00,0.0102
3937.00,0.0102
3936.00,0.0102
3935.00,0.0102
3934.00,0.0101
3933.00,0.0101
3932.00,0.0101
3931.00,0.0100
3930.00,0.0100
3929.00,0.0100
3928.00,0.0101
3927.00,0.0101
3926.00,0.0101
3925.00,0.0101
3924.00,0.0101
3923.00,0.0101
3922.00,0.0101
3921.00,0.0100
3920.00,0.0100
3919.00,0.0100
3918.00,0.0100
3917.00,0.0100
3916.00,0.0100
3915.00,0.0100
3914.00,0.0100
3913.00,0.0100
3912.00,0.0100
3911.00,0.0100
3910.00,0.0100
3909.00,0.0100
3908.00,0.0099
3907.00,0.0099
3906.00,0.0098
3905.00,0.0097
3904.00,0.0096
3903.00,0.0096
3902.00,0.0096
3901.00,0.0096
3900.00,0.0097
3899.00,0.0096
3898.00,0.0096
3897.00,0.0096
3896.00,0.0097
3895.00,0.0097
3894.00,0.0098
3893.00,0.0098
3892.00,0.0098
3891.00,0.0097
3890.00,0.0095
3889.00,0.0094
3888.00,0.0094
3887.00,0.0094
3886.00,0.0094
3885.00,0.0094
3884.00,0.0093
3883.00,0.0093
3882.00,0.0093
3881.00,0.0093
3880.00,0.0093
3879.00,0.0093
3878.00,0.0094
3877.00,0.0096
3876.00,0.0098
3875.00,0.0098
3874.00,0.0096
3873.00,0.0095
3872.00,0.0094
3871.00,0.0094
3870.00,0.0094
3869.00,0.0094
3868.00,0.0093
3867.00,0.0093
3866.00,0.0094
3865.00,0.0096
3864.00,0.0096
3863.00,0.0096
3862.00,0.0096
3861.00,0.0096
3860.00,0.0095
3859.00,0.0095
3858.00,0.0093
3857.00,0.0091
3856.00,0.0088
3855.00,0.0087
3854.00,0.0088
3853.00,0.0091
3852.00,0.0091
3851.00,0.0092
3850.00,0.0093
3849.00,0.0094
3848.00,0.0094
3847.00,0.0094
3846.00,0.0093
3845.00,0.0093
3844.00,0.0093
3843.00,0.0092
3842.00,0.0091
3841.00,0.0091
3840.00,0.0091
3839.00,0.0092
3838.00,0.0092
3837.00,0.0092
3836.00,0.0092
3835.00,0.0093
3834.00,0.0094
3833.00,0.0094
3832.00,0.0094
3831.00,0.0094
3830.00,0.0094
3829.00,0.0094
3828.00,0.0094
3827.00,0.0093
3826.00,0.0092
3825.00,0.0091
3824.00,0.0091
3823.00,0.0092
3822.00,0.0093
3821.00,0.0093
3820.00,0.0091
3819.00,0.0090
3818.00,0.0091
3817.00,0.0092
3816.00,0.0094
3815.00,0.0094
3814.00,0.0094
3813.00,0.0094
3812.00,0.0094
3811.00,0.0093
3810.00,0.0091
3809.00,0.0089
3808.00,0.0089
3807.00,0.0090
3806.00,0.0091
3805.00,0.0091
3804.00,0.0092
3803.00,0.0093
3802.00,0.0094
3801.00,0.0093
3800.00,0.0092
3799.00,0.0092
3798.00,0.0091
3797.00,0.0091
3796.00,0.0091
3795.00,0.0090
3794.00,0.0091
3793.00,0.0091
3792.00,0.0092
3791.00,0.0092
3790.00,0.0091
3789.00,0.0091
3788.00,0.0091
3787.00,0.0092
3786.00,0.0092
3785.00,0.0092
3784.00,0.0092
3783.00,0.0091
3782.00,0.0091
3781.00,0.0090
3780.00,0.0090
3779.00,0.0089
3778.00,0.0089
3777.00,0.0089
3776.00,0.0089
3775.00,0.0089
3774.00,0.0089
3773.00,0.0089
3772.00,0.0088
3771.00,0.0088
3770.00,0.0088
3769.00,0.0087
3768.00,0.0086
3767.00,0.0087
3766.00,0.0087
3765.00,0.0087
3764.00,0.0087
3763.00,0.0087
3762.00,0.0088
3761.00,0.0088
3760.00,0.0088
3759.00,0.0087
3758.00,0.0086
3757.00,0.0085
3756.00,0.0085
3755.00,0.0084
3754.00,0.0083
3753.00,0.0082
3752.00,0.0082
3751.00,0.0083
3750.00,0.0084
3749.00,0.0085
3748.00,0.0085
3747.00,0.0085
3746.00,0.0085
3745.00,0.0084
3744.00,0.0083
3743.00,0.0081
3742.00,0.0081
3741.00,0.0083
3740.00,0.0084
3739.00,0.0084
3738.00,0.0084
3737.00,0.0083
3736.00,0.0082
3735.00,0.0080
3734.00,0.0079
3733.00,0.0078
3732.00,0.0078
3731.00,0.0080
3730.00,0.0081
3729.00,0.0082
3728.00,0.0083
3727.00,0.0083
3726.00,0.0082
3725.00,0.0081
3724.00,0.0080
3723.00,0.0080
3722.00,0.0081
3721.00,0.0082
3720.00,0.0083
3719.00,0.0084
3718.00,0.0084
3717.00,0.0084
3716.00,0.0083
3715.00,0.0082
3714.00,0.0083
3713.00,0.0084
3712.00,0.0085
3711.00,0.0086
3710.00,0.0085
3709.00,0.0085
3708.00,0.0085
3707.00,0.0087
3706.00,0.0088
3705.00,0.0090
3704.00,0.0090
3703.00,0.0089
3702.00,0.0089
3701.00,0.0089
3700.00,0.0089
3699.00,0.0090
3698.00,0.0091
3697.00,0.0092
3696.00,0.0092
3695.00,0.0091
3694.00,0.0090
3693.00,0.0090
3692.00,0.0090
3691.00,0.0092
3690.00,0.0094
3689.00,0.0095
3688.00,0.0095
3687.00,0.0094
3686.00,0.0095
3685.00,0.0095
3684.00,0.0096
3683.00,0.0095
3682.00,0.0095
3681.00,0.0094
3680.00,0.0093
3679.00,0.0091
3678.00,0.0089
3677.00,0.0090
3676.00,0.0092
3675.00,0.0093
3674.00,0.0093
3673.00,0.0094
3672.00,0.0097
3671.00,0.0101
3670.00,0.0105
3669.00,0.0107
3668.00,0.0107
3667.00,0.0108
3666.00,0.0109
3665.00,0.0111
3664.00,0.0113
3663.00,0.0114
3662.00,0.0116
3661.00,0.0118
3660.00,0.0119
3659.00,0.0121
3658.00,0.0123
3657.00,0.0125
3656.00,0.0127
3655.00,0.0129
3654.00,0.0130
3653.00,0.0131
3652.00,0.0132
3651.00,0.0133
3650.00,0.0136
3649.00,0.0139
3648.00,0.0141
3647.00,0.0142
3646.00,0.0144
3645.00,0.0147
3644.00,0.0151
3643.00,0.0154
3642.00,0.0157
3641.00,0.0159
3640.00,0.0162
3639.00,0.0164
3638.00,0.0166
3637.00,0.0167
3636.00,0.0169
3635.00,0.0171
3634.00,0.0172
3633.00,0.0172
3632.00,0.0172
3631.00,0.0173
3630.00,0.0177
3629.00,0.0183
3628.00,0.0186
3627.00,0.0188
3626.00,0.0189
3625.00,0.0191
3624.00,0.0192
3623.00,0.0193
3622.00,0.0194
3621.00,0.0197
3620.00,0.0201
3619.00,0.0204
3618.00,0.0206
3617.00,0.0207
3616.00,0.0208
3615.00,0.0210
3614.00,0.0212
3613.00,0.0214
3612.00,0.0215
3611.00,0.0216
3610.00,0.0218
3609.00,0.0221
3608.00,0.0224
3607.00,0.0226
3606.00,0.0226
3605.00,0.0227
3604.00,0.0228
3603.00,0.0230
3602.00,0.0233
3601.00,0.0236
3600.00,0.0238
3599.00,0.0239
3598.00,0.0239
3597.00,0.0240
3596.00,0.0241
3595.00,0.0243
3594.00,0.0244
3593.00,0.0244
3592.00,0.0244
3591.00,0.0244
3590.00,0.0245
3589.00,0.0247
3588.00,0.0251
3587.00,0.0254
3586.00,0.0255
3585.00,0.0256
3584.00,0.0258
3583.00,0.0260
3582.00,0.0261
3581.00,0.0263
3580.00,0.0264
3579.00,0.0266
3578.00,0.0267
3577.00,0.0269
3576.00,0.0271
3575.00,0.0272
3574.00,0.0274
3573.00,0.0275
3572.00,0.0275
3571.00,0.0274
3570.00,0.0274
3569.00,0.0274
3568.00,0.0277
3567.00,0.0280
3566.00,0.0283
3565.00,0.0283
3564.00,0.0284
3563.00,0.0286
3562.00,0.0289
3561.00,0.0291
3560.00,0.0293
3559.00,0.0294
3558.00,0.0295
3557.00,0.0297
3556.00,0.0298
3555.00,0.0300
3554.00,0.0302
3553.00,0.0303
3552.00,0.0305
3551.00,0.0306
3550.00,0.0307
3549.00,0.0308
3548.00,0.0310
3547.00,0.0311
3546.00,0.0313
3545.00,0.0314
3544.00,0.0315
3543.00,0.0317
3542.00,0.0318
3541.00,0.0319
3540.00,0.0320
3539.00,0.0320
3538.00,0.0320
3537.00,0.0321
3536.00,0.0323
3535.00,0.0325
3534.00,0.0326
3533.00,0.0328
3532.00,0.0329
3531.00,0.0330
3530.00,0.0331
3529.00,0.0332
3528.00,0.0332
3527.00,0.0333
3526.00,0.0335
3525.00,0.0337
3524.00,0.0340
3523.00,0.0342
3522.00,0.0343
3521.00,0.0343
3520.00,0.0343
3519.00,0.0343
3518.00,0.0343
3517.00,0.0344
3516.00,0.0345
3515.00,0.0346
3514.00,0.0348
3513.00,0.0350
3512.00,0.0352
3511.00,0.0353
3510.00,0.0354
3509.00,0.0355
3508.00,0.0355
3507.00,0.0356
3506.00,0.0357
3505.00,0.0359
3504.00,0.0362
3503.00,0.0364
3502.00,0.0365
3501.00,0.0365
3500.00,0.0365
3499.00,0.0366
3498.00,0.0367
3497.00,0.0369
3496.00,0.0371
3495.00,0.0371
3494.00,0.0372
3493.00,0.0372
3492.00,0.0373
3491.00,0.0374
3490.00,0.0374
3489.00,0.0375
3488.00,0.0376
3487.00,0.0377
3486.00,0.0378
3485.00,0.0378
3484.00,0.0379
3483.00,0.0380
3482.00,0.0382
3481.00,0.0383
3480.00,0.0384
3479.00,0.0385
3478.00,0.0386
3477.00,0.0387
3476.00,0.0389
3475.00,0.0390
3474.00,0.0391
3473.00,0.0392
3472.00,0.0393
3471.00,0.0394
3470.00,0.0395
3469.00,0.0396
3468.00,0.0396
3467.00,0.0397
3466.00,0.0398
3465.00,0.0400
3464.00,0.0400
3463.00,0.0400
3462.00,0.0400
3461.00,0.0400
3460.00,0.0402
3459.00,0.0404
3458.00,0.0405
3457.00,0.0406
3456.00,0.0406
3455.00,0.0406
3454.00,0.0407
3453.00,0.0408
3452.00,0.0409
3451.00,0.0410
3450.00,0.0410
3449.00,0.0411
3448.00,0.0413
3447.00,0.0414
3446.00,0.0415
3445.00,0.0415
3444.00,0.0416
3443.00,0.0417
3442.00,0.0417
3441.00,0.0417
3440.00,0.0417
3439.00,0.0417
3438.00,0.0417
3437.00,0.0418
3436.00,0.0419
3435.00,0.0419
3434.00,0.0420
3433.00,0.0421
3432.00,0.0422
3431.00,0.0424
3430.00,0.0425
3429.00,0.0426
3428.00,0.0426
3427.00,0.0426
3426.00,0.0427
3425.00,0.0429
3424.00,0.0430
3423.00,0.0432
3422.00,0.0433
3421.00,0.0433
3420.00,0.0433
3419.00,0.0434
3418.00,0.0434
3417.00,0.0434
3416.00,0.0434
3415.00,0.0434
3414.00,0.0434
3413.00,0.0435
3412.00,0.0436
3411.00,0.0437
3410.00,0.0438
3409.00,0.0439
3408.00,0.0440
3407.00,0.0441
3406.00,0.0442
3405.00,0.0442
3404.00,0.0442
3403.00,0.0442
3402.00,0.0442
3401.00,0.0443
3400.00,0.0444
3399.00,0.0445
3398.00,0.0445
3397.00,0.0445
3396.00,0.0445
3395.00,0.0445
3394.00,0.0445
3393.00,0.0445
3392.00,0.0447
3391.00,0.0448
3390.00,0.0449
3389.00,0.0450
3388.00,0.0450
3387.00,0.0450
3386.00,0.0450
3385.00,0.0450
3384.00,0.0450
3383.00,0.0451
3382.00,0.0452
3381.00,0.0452
3380.00,0.0453
3379.00,0.0453
3378.00,0.0453
3377.00,0.0453
3376.00,0.0453
3375.00,0.0454
3374.00,0.0454
3373.00,0.0454
3372.00,0.0454
3371.00,0.0454
3370.00,0.0454
3369.00,0.0455
3368.00,0.0455
3367.00,0.0456
3366.00,0.0456
3365.00,0.0455
3364.00,0.0455
3363.00,0.0456
3362.00,0.0457
3361.00,0.0459
3360.00,0.0460
3359.00,0.0460
3358.00,0.0460
3357.00,0.0460
3356.00,0.0460
3355.00,0.0460
3354.00,0.0460
3353.00,0.0460
3352.00,0.0460
3351.00,0.0460
3350.00,0.0460
3349.00,0.0460
3348.00,0.0460
3347.00,0.0460
3346.00,0.0460
3345.00,0.0460
3344.00,0.0460
3343.00,0.0459
3342.00,0.0460
3341.00,0.0460
3340.00,0.0460
3339.00,0.0461
3338.00,0.0460
3337.00,0.0460
3336.00,0.0460
3335.00,0.0460
3334.00,0.0460
3333.00,0.0460
3332.00,0.0460
3331.00,0.0459
3330.00,0.0459
3329.00,0.0458
3328.00,0.0459
3327.00,0.0459
3326.00,0.0460
3325.00,0.0461
3324.00,0.0461
3323.00,0.0461
3322.00,0.0461
3321.00,0.0460
3320.00,0.0460
3319.00,0.0460
3318.00,0.0460
3317.00,0.0460
3316.00,0.0460
3315.00,0.0459
3314.00,0.0459
3313.00,0.0459
3312.00,0.0458
3311.00,0.0459
3310.00,0.0459
3309.00,0.0460
3308.00,0.0461
3307.00,0.0461
3306.00,0.0461
3305.00,0.0461
3304.00,0.0460
3303.00,0.0460
3302.00,0.0460
3301.00,0.0460
3300.00,0.0460
3299.00,0.0460
3298.00,0.0460
3297.00,0.0460
3296.00,0.0460
3295.00,0.0460
3294.00,0.0460
3293.00,0.0460
3292.00,0.0460
3291.00,0.0460
3290.00,0.0460
3289.00,0.0460
3288.00,0.0461
3287.00,0.0461
3286.00,0.0461
3285.00,0.0462
3284.00,0.0462
3283.00,0.0462
3282.00,0.0462
3281.00,0.0462
3280.00,0.0461
3279.00,0.0461
3278.00,0.0461
3277.00,0.0461
3276.00,0.0461
3275.00,0.0461
3274.00,0.0461
3273.00,0.0462
3272.00,0.0462
3271.00,0.0462
3270.00,0.0462
3269.00,0.0463
3268.00,0.0463
3267.00,0.0464
3266.00,0.0463
3265.00,0.0462
3264.00,0.0461
3263.00,0.0461
3262.00,0.0461
3261.00,0.0461
3260.00,0.0461
3259.00,0.0462
3258.00,0.0462
3257.00,0.0462
3256.00,0.0462
3255.00,0.0462
3254.00,0.0462
3253.00,0.0462
3252.00,0.0463
3251.00,0.0463
3250.00,0.0462
3249.00,0.0462
3248.00,0.0461
3247.00,0.0461
3246.00,0.0461
3245.00,0.0462
3244.00,0.0462
3243.00,0.0462
3242.00,0.0462
3241.00,0.0462
3240.00,0.0462
3239.00,0.0462
3238.00,0.0463
3237.00,0.0463
3236.00,0.0464
3235.00,0.0464
3234.00,0.0464
3233.00,0.0464
3232.00,0.0464
3231.00,0.0463
3230.00,0.0463
3229.00,0.0462
3228.00,0.0462
3227.00,0.0462
3226.00,0.0462
3225.00,0.0462
3224.00,0.0462
3223.00,0.0462
3222.00,0.0462
3221.00,0.0462
3220.00,0.0462
3219.00,0.0462
3218.00,0.0462
3217.00,0.0462
3216.00,0.0463
3215.00,0.0463
3214.00,0.0463
3213.00,0.0463
3212.00,0.0462
3211.00,0.0461
3210.00,0.0461
3209.00,0.0461
3208.00,0.0461
3207.00,0.0461
3206.00,0.0461
3205.00,0.0461
3204.00,0.0461
3203.00,0.0461
3202.00,0.0461
3201.00,0.0461
3200.00,0.0461
3199.00,0.0462
3198.00,0.0462
3197.00,0.0462
3196.00,0.0461
3195.00,0.0461
3194.00,0.0461
3193.00,0.0461
3192.00,0.0460
3191.00,0.0459
3190.00,0.0458
3189.00,0.0457
3188.00,0.0456
3187.00,0.0456
3186.00,0.0456
3185.00,0.0456
3184.00,0.0457
3183.00,0.0457
3182.00,0.0458
3181.00,0.0457
3180.00,0.0457
3179.00,0.0456
3178.00,0.0455
3177.00,0.0454
3176.00,0.0453
3175.00,0.0453
3174.00,0.0454
3173.00,0.0454
3172.00,0.0454
3171.00,0.0454
3170.00,0.0453
3169.00,0.0452
3168.00,0.0452
3167.00,0.0451
3166.00,0.0452
3165.00,0.0452
3164.00,0.0453
3163.00,0.0453
3162.00,0.0452
3161.00,0.0451
3160.00,0.0449
3159.00,0.0447
3158.00,0.0446
3157.00,0.0446
3156.00,0.0446
3155.00,0.0446
3154.00,0.0447
3153.00,0.0447
3152.00,0.0447
3151.00,0.0447
3150.00,0.0446
3149.00,0.0445
3148.00,0.0445
3147.00,0.0445
3146.00,0.0444
3145.00,0.0444
3144.00,0.0444
3143.00,0.0443
3142.00,0.0443
3141.00,0.0442
3140.00,0.0442
3139.00,0.0442
3138.00,0.0442
3137.00,0.0442
3136.00,0.0441
3135.00,0.0441
3134.00,0.0441
3133.00,0.0440
3132.00,0.0440
3131.00,0.0440
3130.00,0.0440
3129.00,0.0439
3128.00,0.0439
3127.00,0.0439
3126.00,0.0438
3125.00,0.0438
3124.00,0.0437
3123.00,0.0436
3122.00,0.0436
3121.00,0.0435
3120.00,0.0435
3119.00,0.0435
3118.00,0.0435
3117.00,0.0435
3116.00,0.0434
3115.00,0.0434
3114.00,0.0433
3113.00,0.0433
3112.00,0.0433
3111.00,0.0432
3110.00,0.0432
3109.00,0.0431
3108.00,0.0431
3107.00,0.0431
3106.00,0.0431
3105.00,0.0431
3104.00,0.0431
3103.00,0.0430
3102.00,0.0429
3101.00,0.0428
3100.00,0.0427
3099.00,0.0427
3098.00,0.0426
3097.00,0.0426
3096.00,0.0426
3095.00,0.0427
3094.00,0.0427
3093.00,0.0427
3092.00,0.0427
3091.00,0.0426
3090.00,0.0425
3089.00,0.0424
3088.00,0.0423
3087.00,0.0423
3086.00,0.0423
3085.00,0.0423
3084.00,0.0423
3083.00,0.0423
3082.00,0.0422
3081.00,0.0422
3080.00,0.0422
3079.00,0.0421
3078.00,0.0421
3077.00,0.0420
3076.00,0.0420
3075.00,0.0419
3074.00,0.0419
3073.00,0.0419
3072.00,0.0419
3071.00,0.0418
3070.00,0.0418
3069.00,0.0418
3068.00,0.0418
3067.00,0.0417
3066.00,0.0416
3065.00,0.0415
3064.00,0.0414
3063.00,0.0413
3062.00,0.0412
3061.00,0.0412
3060.00,0.0412
3059.00,0.0412
3058.00,0.0411
3057.00,0.0411
3056.00,0.0410
3055.00,0.0410
3054.00,0.0409
3053.00,0.0408
3052.00,0.0407
3051.00,0.0407
3050.00,0.0407
3049.00,0.0408
3048.00,0.0407
3047.00,0.0407
3046.00,0.0406
3045.00,0.0405
3044.00,0.0404
3043.00,0.0403
3042.00,0.0402
3041.00,0.0401
3040.00,0.0401
3039.00,0.0400
3038.00,0.0400
3037.00,0.0400
3036.00,0.0400
3035.00,0.0400
3034.00,0.0399
3033.00,0.0399
3032.00,0.0398
3031.00,0.0398
3030.00,0.0396
3029.00,0.0395
3028.00,0.0394
3027.00,0.0394
3026.00,0.0394
3025.00,0.0394
3024.00,0.0393
3023.00,0.0393
3022.00,0.0392
3021.00,0.0392
3020.00,0.0391
3019.00,0.0390
3018.00,0.0389
3017.00,0.0388
3016.00,0.0388
3015.00,0.0387
3014.00,0.0386
3013.00,0.0385
3012.00,0.0385
3011.00,0.0384
3010.00,0.0383
3009.00,0.0382
3008.00,0.0380
3007.00,0.0378
3006.00,0.0377
3005.00,0.0376
3004.00,0.0375
3003.00,0.0374
3002.00,0.0372
3001.00,0.0370
3000.00,0.0368
2999.00,0.0367
2998.00,0.0366
2997.00,0.0364
2996.00,0.0364
2995.00,0.0363
2994.00,0.0362
2993.00,0.0362
2992.00,0.0361
2991.00,0.0360
2990.00,0.0359
2989.00,0.0359
2988.00,0.0358
2987.00,0.0356
2986.00,0.0353
2985.00,0.0349
2984.00,0.0345
2983.00,0.0343
2982.00,0.0341
2981.00,0.0342
2980.00,0.0343
2979.00,0.0345
2978.00,0.0347
2977.00,0.0349
2976.00,0.0351
2975.00,0.0352
2974.00,0.0352
2973.00,0.0351
2972.00,0.0351
2971.00,0.0351
2970.00,0.0353
2969.00,0.0355
2968.00,0.0357
2967.00,0.0359
2966.00,0.0360
2965.00,0.0361
2964.00,0.0362
2963.00,0.0363
2962.00,0.0364
2961.00,0.0365
2960.00,0.0365
2959.00,0.0365
2958.00,0.0366
2957.00,0.0366
2956.00,0.0367
2955.00,0.0368
2954.00,0.0369
2953.00,0.0370
2952.00,0.0371
2951.00,0.0371
2950.00,0.0372
2949.00,0.0372
2948.00,0.0373
2947.00,0.0373
2946.00,0.0374
2945.00,0.0374
2944.00,0.0376
2943.00,0.0377
2942.00,0.0379
2941.00,0.0380
2940.00,0.0380
2939.00,0.0380
2938.00,0.0381
2937.00,0.0382
2936.00,0.0383
2935.00,0.0384
2934.00,0.0385
2933.00,0.0386
2932.00,0.0387
2931.00,0.0387
2930.00,0.0387
2929.00,0.0388
2928.00,0.0389
2927.00,0.0389
2926.00,0.0389
2925.00,0.0388
2924.00,0.0388
2923.00,0.0387
2922.00,0.0386
2921.00,0.0385
2920.00,0.0384
2919.00,0.0382
2918.00,0.0379
2917.00,0.0377
2916.00,0.0375
2915.00,0.0373
2914.00,0.0371
2913.00,0.0370
2912.00,0.0368
2911.00,0.0367
2910.00,0.0366
2909.00,0.0365
2908.00,0.0363
2907.00,0.0362
2906.00,0.0360
2905.00,0.0359
2904.00,0.0358
2903.00,0.0356
2902.00,0.0355
2901.00,0.0355
2900.00,0.0354
2899.00,0.0352
2898.00,0.0351
2897.00,0.0350
2896.00,0.0349
2895.00,0.0348
2894.00,0.0347
2893.00,0.0346
2892.00,0.0346
2891.00,0.0345
2890.00,0.0344
2889.00,0.0343
2888.00,0.0343
2887.00,0.0342
2886.00,0.0342
2885.00,0.0341
2884.00,0.0340
2883.00,0.0340
2882.00,0.0340
2881.00,0.0340
2880.00,0.0340
2879.00,0.0340
2878.00,0.0340
2877.00,0.0340
2876.00,0.0340
2875.00,0.0340
2874.00,0.0339
2873.00,0.0339
2872.00,0.0338
2871.00,0.0338
2870.00,0.0338
2869.00,0.0338
2868.00,0.0338
2867.00,0.0338
2866.00,0.0339
2865.00,0.0339
2864.00,0.0339
2863.00,0.0339
2862.00,0.0339
2861.00,0.0340
2860.00,0.0341
2859.00,0.0342
2858.00,0.0344
2857.00,0.0344
2856.00,0.0345
2855.00,0.0344
2854.00,0.0343
2853.00,0.0343
2852.00,0.0343
2851.00,0.0342
2850.00,0.0342
2849.00,0.0340
2848.00,0.0338
2847.00,0.0336
2846.00,0.0334
2845.00,0.0333
2844.00,0.0331
2843.00,0.0330
2842.00,0.0329
2841.00,0.0327
2840.00,0.0325
2839.00,0.0324
2838.00,0.0323
2837.00,0.0322
2836.00,0.0322
2835.00,0.0322
2834.00,0.0322
2833.00,0.0322
2832.00,0.0320
2831.00,0.0319
2830.00,0.0318
2829.00,0.0317
2828.00,0.0317
2827.00,0.0316
2826.00,0.0316
2825.00,0.0315
2824.00,0.0314
2823.00,0.0313
2822.00,0.0313
2821.00,0.0312
2820.00,0.0311
2819.00,0.0310
2818.00,0.0309
2817.00,0.0309
2816.00,0.0308
2815.00,0.0308
2814.00,0.0307
2813.00,0.0306
2812.00,0.0306
2811.00,0.0306
2810.00,0.0305
2809.00,0.0305
2808.00,0.0304
2807.00,0.0304
2806.00,0.0304
2805.00,0.0303
2804.00,0.0303
2803.00,0.0303
2802.00,0.0302
2801.00,0.0302
2800.00,0.0301
2799.00,0.0301
2798.00,0.0301
2797.00,0.0300
2796.00,0.0300
2795.00,0.0299
2794.00,0.0299
2793.00,0.0298
2792.00,0.0298
2791.00,0.0298
2790.00,0.0298
2789.00,0.0297
2788.00,0.0297
2787.00,0.0296
2786.00,0.0296
2785.00,0.0295
2784.00,0.0295
2783.00,0.0294
2782.00,0.0293
2781.00,0.0292
2780.00,0.0291
2779.00,0.0291
2778.00,0.0291
2777.00,0.0292
2776.00,0.0292
2775.00,0.0291
2774.00,0.0291
2773.00,0.0290
2772.00,0.0290
2771.00,0.0289
2770.00,0.0288
2769.00,0.0287
2768.00,0.0286
2767.00,0.0286
2766.00,0.0286
2765.00,0.0286
2764.00,0.0286
2763.00,0.0286
2762.00,0.0285
2761.00,0.0285
2760.00,0.0285
2759.00,0.0285
2758.00,0.0284
2757.00,0.0284
2756.00,0.0283
2755.00,0.0283
2754.00,0.0283
2753.00,0.0282
2752.00,0.0282
2751.00,0.0282
2750.00,0.0282
2749.00,0.0282
2748.00,0.0282
2747.00,0.0282
2746.00,0.0281
2745.00,0.0281
2744.00,0.0281
2743.00,0.0280
2742.00,0.0280
2741.00,0.0280
2740.00,0.0279
2739.00,0.0279
2738.00,0.0278
2737.00,0.0277
2736.00,0.0277
2735.00,0.0276
2734.00,0.0277
2733.00,0.0277
2732.00,0.0277
2731.00,0.0276
2730.00,0.0276
2729.00,0.0275
2728.00,0.0275
2727.00,0.0274
2726.00,0.0274
2725.00,0.0274
2724.00,0.0274
2723.00,0.0273
2722.00,0.0273
2721.00,0.0272
2720.00,0.0271
2719.00,0.0271
2718.00,0.0271
2717.00,0.0272
2716.00,0.0272
2715.00,0.0271
2714.00,0.0271
2713.00,0.0271
2712.00,0.0270
2711.00,0.0270
2710.00,0.0269
2709.00,0.0269
2708.00,0.0268
2707.00,0.0268
2706.00,0.0267
2705.00,0.0267
2704.00,0.0267
2703.00,0.0267
2702.00,0.0266
2701.00,0.0266
2700.00,0.0266
2699.00,0.0266
2698.00,0.0266
2697.00,0.0265
2696.00,0.0265
2695.00,0.0265
2694.00,0.0265
2693.00,0.0265
2692.00,0.0265
2691.00,0.0264
2690.00,0.0264
2689.00,0.0263
2688.00,0.0263
2687.00,0.0262
2686.00,0.0262
2685.00,0.0262
2684.00,0.0262
2683.00,0.0262
2682.00,0.0261
2681.00,0.0261
2680.00,0.0260
2679.00,0.0260
2678.00,0.0259
2677.00,0.0258
2676.00,0.0258
2675.00,0.0258
2674.00,0.0258
2673.00,0.0258
2672.00,0.0258
2671.00,0.0258
2670.00,0.0257
2669.00,0.0257
2668.00,0.0257
2667.00,0.0257
2666.00,0.0257
2665.00,0.0257
2664.00,0.0257
2663.00,0.0257
2662.00,0.0258
2661.00,0.0258
2660.00,0.0258
2659.00,0.0258
2658.00,0.0259
2657.00,0.0259
2656.00,0.0258
2655.00,0.0258
2654.00,0.0258
2653.00,0.0258
2652.00,0.0258
2651.00,0.0258
2650.00,0.0258
2649.00,0.0258
2648.00,0.0257
2647.00,0.0256
2646.00,0.0256
2645.00,0.0256
2644.00,0.0256
2643.00,0.0257
2642.00,0.0257
2641.00,0.0257
2640.00,0.0257
2639.00,0.0257
2638.00,0.0256
2637.00,0.0256
2636.00,0.0256
2635.00,0.0256
2634.00,0.0256
2633.00,0.0257
2632.00,0.0257
2631.00,0.0257
2630.00,0.0256
2629.00,0.0255
2628.00,0.0254
2627.00,0.0254
2626.00,0.0254
2625.00,0.0254
2624.00,0.0255
2623.00,0.0255
2622.00,0.0255
2621.00,0.0255
2620.00,0.0255
2619.00,0.0255
2618.00,0.0255
2617.00,0.0255
2616.00,0.0255
2615.00,0.0254
2614.00,0.0253
2613.00,0.0253
2612.00,0.0253
2611.00,0.0253
2610.00,0.0253
2609.00,0.0253
2608.00,0.0252
2607.00,0.0252
2606.00,0.0253
2605.00,0.0253
2604.00,0.0254
2603.00,0.0254
2602.00,0.0254
2601.00,0.0253
2600.00,0.0253
2599.00,0.0252
2598.00,0.0252
2597.00,0.0251
2596.00,0.0250
2595.00,0.0249
2594.00,0.0249
2593.00,0.0249
2592.00,0.0250
2591.00,0.0251
2590.00,0.0251
2589.00,0.0251
2588.00,0.0251
2587.00,0.0250
2586.00,0.0250
2585.00,0.0249
2584.00,0.0248
2583.00,0.0248
2582.00,0.0249
2581.00,0.0249
2580.00,0.0249
2579.00,0.0250
2578.00,0.0249
2577.00,0.0248
2576.00,0.0247
2575.00,0.0246
2574.00,0.0246
2573.00,0.0247
2572.00,0.0247
2571.00,0.0247
2570.00,0.0246
2569.00,0.0246
2568.00,0.0246
2567.00,0.0247
2566.00,0.0248
2565.00,0.0248
2564.00,0.0247
2563.00,0.0247
2562.00,0.0248
2561.00,0.0248
2560.00,0.0247
2559.00,0.0246
2558.00,0.0246
2557.00,0.0246
2556.00,0.0246
2555.00,0.0246
2554.00,0.0246
2553.00,0.0245
2552.00,0.0244
2551.00,0.0243
2550.00,0.0242
2549.00,0.0241
2548.00,0.0241
2547.00,0.0240
2546.00,0.0240
2545.00,0.0241
2544.00,0.0241
2543.00,0.0241
2542.00,0.0240
2541.00,0.0239
2540.00,0.0238
2539.00,0.0237
2538.00,0.0237
2537.00,0.0236
2536.00,0.0236
2535.00,0.0237
2534.00,0.0237
2533.00,0.0238
2532.00,0.0238
2531.00,0.0238
2530.00,0.0237
2529.00,0.0236
2528.00,0.0235
2527.00,0.0235
2526.00,0.0234
2525.00,0.0234
2524.00,0.0234
2523.00,0.0234
2522.00,0.0234
2521.00,0.0235
2520.00,0.0235
2519.00,0.0235
2518.00,0.0236
2517.00,0.0237
2516.00,0.0237
2515.00,0.0237
2514.00,0.0236
2513.00,0.0235
2512.00,0.0234
2511.00,0.0235
2510.00,0.0235
2509.00,0.0236
2508.00,0.0236
2507.00,0.0235
2506.00,0.0234
2505.00,0.0233
2504.00,0.0233
2503.00,0.0233
2502.00,0.0233
2501.00,0.0234
2500.00,0.0234
2499.00,0.0234
2498.00,0.0234
2497.00,0.0233
2496.00,0.0233
2495.00,0.0233
2494.00,0.0233
2493.00,0.0233
2492.00,0.0233
2491.00,0.0233
2490.00,0.0233
2489.00,0.0234
2488.00,0.0234
2487.00,0.0233
2486.00,0.0232
2485.00,0.0231
2484.00,0.0230
2483.00,0.0229
2482.00,0.0230
2481.00,0.0230
2480.00,0.0231
2479.00,0.0231
2478.00,0.0230
2477.00,0.0229
2476.00,0.0229
2475.00,0.0228
2474.00,0.0227
2473.00,0.0227
2472.00,0.0227
2471.00,0.0228
2470.00,0.0228
2469.00,0.0228
2468.00,0.0227
2467.00,0.0226
2466.00,0.0226
2465.00,0.0226
2464.00,0.0226
2463.00,0.0225
2462.00,0.0225
2461.00,0.0225
2460.00,0.0225
2459.00,0.0225
2458.00,0.0226
2457.00,0.0227
2456.00,0.0227
2455.00,0.0227
2454.00,0.0227
2453.00,0.0227
2452.00,0.0228
2451.00,0.0227
2450.00,0.0226
2449.00,0.0225
2448.00,0.0224
2447.00,0.0224
2446.00,0.0223
2445.00,0.0222
2444.00,0.0222
2443.00,0.0221
2442.00,0.0221
2441.00,0.0222
2440.00,0.0222
2439.00,0.0222
2438.00,0.0222
2437.00,0.0222
2436.00,0.0221
2435.00,0.0220
2434.00,0.0219
2433.00,0.0219
2432.00,0.0219
2431.00,0.0219
2430.00,0.0219
2429.00,0.0219
2428.00,0.0219
2427.00,0.0219
2426.00,0.0219
2425.00,0.0218
2424.00,0.0218
2423.00,0.0218
2422.00,0.0217
2421.00,0.0217
2420.00,0.0217
2419.00,0.0217
2418.00,0.0216
2417.00,0.0215
2416.00,0.0215
2415.00,0.0214
2414.00,0.0215
2413.00,0.0215
2412.00,0.0215
2411.00,0.0215
2410.00,0.0215
2409.00,0.0215
2408.00,0.0214
2407.00,0.0214
2406.00,0.0213
2405.00,0.0212
2404.00,0.0212
2403.00,0.0211
2402.00,0.0210
2401.00,0.0210
2400.00,0.0209
2399.00,0.0209
2398.00,0.0209
2397.00,0.0209
2396.00,0.0209
2395.00,0.0208
2394.00,0.0208
2393.00,0.0207
2392.00,0.0206
2391.00,0.0206
2390.00,0.0205
2389.00,0.0205
2388.00,0.0204
2387.00,0.0203
2386.00,0.0202
2385.00,0.0201
2384.00,0.0199
2383.00,0.0197
2382.00,0.0196
2381.00,0.0195
2380.00,0.0196
2379.00,0.0196
2378.00,0.0196
2377.00,0.0195
2376.00,0.0194
2375.00,0.0193
2374.00,0.0193
2373.00,0.0192
2372.00,0.0192
2371.00,0.0190
2370.00,0.0188
2369.00,0.0185
2368.00,0.0183
2367.00,0.0183
2366.00,0.0185
2365.00,0.0188
2364.00,0.0189
2363.00,0.0187
2362.00,0.0186
2361.00,0.0186
2360.00,0.0187
2359.00,0.0187
2358.00,0.0186
2357.00,0.0186
2356.00,0.0186
2355.00,0.0185
2354.00,0.0185
2353.00,0.0185
2352.00,0.0184
2351.00,0.0184
2350.00,0.0183
2349.00,0.0182
2348.00,0.0182
2347.00,0.0181
2346.00,0.0181
2345.00,0.0182
2344.00,0.0185
2343.00,0.0187
2342.00,0.0189
2341.00,0.0190
2340.00,0.0190
2339.00,0.0189
2338.00,0.0187
2337.00,0.0185
2336.00,0.0185
2335.00,0.0185
2334.00,0.0185
2333.00,0.0186
2332.00,0.0186
2331.00,0.0185
2330.00,0.0184
2329.00,0.0184
2328.00,0.0186
2327.00,0.0188
2326.00,0.0190
2325.00,0.0191
2324.00,0.0191
2323.00,0.0191
2322.00,0.0190
2321.00,0.0190
2320.00,0.0189
2319.00,0.0188
2318.00,0.0187
2317.00,0.0186
2316.00,0.0187
2315.00,0.0187
2314.00,0.0186
2313.00,0.0186
2312.00,0.0186
2311.00,0.0187
2310.00,0.0188
2309.00,0.0189
2308.00,0.0190
2307.00,0.0190
2306.00,0.0190
2305.00,0.0190
2304.00,0.0190
2303.00,0.0189
2302.00,0.0188
2301.00,0.0188
2300.00,0.0189
2299.00,0.0190
2298.00,0.0190
2297.00,0.0191
2296.00,0.0191
2295.00,0.0191
2294.00,0.0193
2293.00,0.0195
2292.00,0.0197
2291.00,0.0198
2290.00,0.0198
2289.00,0.0198
2288.00,0.0199
2287.00,0.0200
2286.00,0.0201
2285.00,0.0202
2284.00,0.0203
2283.00,0.0203
2282.00,0.0202
2281.00,0.0201
2280.00,0.0200
2279.00,0.0199
2278.00,0.0199
2277.00,0.0199
2276.00,0.0198
2275.00,0.0197
2274.00,0.0195
2273.00,0.0194
2272.00,0.0194
2271.00,0.0194
2270.00,0.0195
2269.00,0.0195
2268.00,0.0195
2267.00,0.0194
2266.00,0.0194
2265.00,0.0195
2264.00,0.0195
2263.00,0.0196
2262.00,0.0196
2261.00,0.0196
2260.00,0.0196
2259.00,0.0195
2258.00,0.0193
2257.00,0.0190
2256.00,0.0188
2255.00,0.0187
2254.00,0.0187
2253.00,0.0188
2252.00,0.0189
2251.00,0.0189
2250.00,0.0189
2249.00,0.0189
2248.00,0.0189
2247.00,0.0189
2246.00,0.0191
2245.00,0.0193
2244.00,0.0193
2243.00,0.0193
2242.00,0.0192
2241.00,0.0192
2240.00,0.0192
2239.00,0.0191
2238.00,0.0190
2237.00,0.0188
2236.00,0.0188
2235.00,0.0188
2234.00,0.0189
2233.00,0.0190
2232.00,0.0191
2231.00,0.0190
2230.00,0.0189
2229.00,0.0189
2228.00,0.0189
2227.00,0.0189
2226.00,0.0189
2225.00,0.0189
2224.00,0.0187
2223.00,0.0186
2222.00,0.0184
2221.00,0.0183
2220.00,0.0184
2219.00,0.0184
2218.00,0.0185
2217.00,0.0186
2216.00,0.0187
2215.00,0.0188
2214.00,0.0188
2213.00,0.0187
2212.00,0.0185
2211.00,0.0182
2210.00,0.0180
2209.00,0.0181
2208.00,0.0183
2207.00,0.0185
2206.00,0.0186
2205.00,0.0186
2204.00,0.0186
2203.00,0.0185
2202.00,0.0185
2201.00,0.0183
2200.00,0.0182
2199.00,0.0182
2198.00,0.0183
2197.00,0.0184
2196.00,0.0185
2195.00,0.0185
2194.00,0.0183
2193.00,0.0182
2192.00,0.0180
2191.00,0.0178
2190.00,0.0176
2189.00,0.0175
2188.00,0.0176
2187.00,0.0180
2186.00,0.0184
2185.00,0.0186
2184.00,0.0185
2183.00,0.0182
2182.00,0.0179
2181.00,0.0178
2180.00,0.0179
2179.00,0.0182
2178.00,0.0184
2177.00,0.0184
2176.00,0.0183
2175.00,0.0181
2174.00,0.0180
2173.00,0.0180
2172.00,0.0181
2171.00,0.0184
2170.00,0.0187
2169.00,0.0190
2168.00,0.0191
2167.00,0.0190
2166.00,0.0189
2165.00,0.0190
2164.00,0.0193
2163.00,0.0195
2162.00,0.0195
2161.00,0.0191
2160.00,0.0181
2159.00,0.0169
2158.00,0.0160
2157.00,0.0156
2156.00,0.0156
2155.00,0.0159
2154.00,0.0162
2153.00,0.0166
2152.00,0.0168
2151.00,0.0166
2150.00,0.0162
2149.00,0.0160
2148.00,0.0160
2147.00,0.0163
2146.00,0.0166
2145.00,0.0169
2144.00,0.0170
2143.00,0.0170
2142.00,0.0170
2141.00,0.0170
2140.00,0.0170
2139.00,0.0169
2138.00,0.0167
2137.00,0.0164
2136.00,0.0161
2135.00,0.0158
2134.00,0.0157
2133.00,0.0157
2132.00,0.0159
2131.00,0.0160
2130.00,0.0162
2129.00,0.0164
2128.00,0.0165
2127.00,0.0166
2126.00,0.0165
2125.00,0.0164
2124.00,0.0163
2123.00,0.0163
2122.00,0.0162
2121.00,0.0163
2120.00,0.0163
2119.00,0.0163
2118.00,0.0164
2117.00,0.0164
2116.00,0.0164
2115.00,0.0162
2114.00,0.0161
2113.00,0.0160
2112.00,0.0161
2111.00,0.0163
2110.00,0.0165
2109.00,0.0167
2108.00,0.0168
2107.00,0.0168
2106.00,0.0168
2105.00,0.0167
2104.00,0.0166
2103.00,0.0166
2102.00,0.0166
2101.00,0.0165
2100.00,0.0164
2099.00,0.0162
2098.00,0.0160
2097.00,0.0159
2096.00,0.0159
2095.00,0.0159
2094.00,0.0160
2093.00,0.0161
2092.00,0.0162
2091.00,0.0161
2090.00,0.0160
2089.00,0.0159
2088.00,0.0159
2087.00,0.0159
2086.00,0.0160
2085.00,0.0162
2084.00,0.0163
2083.00,0.0164
2082.00,0.0164
2081.00,0.0164
2080.00,0.0164
2079.00,0.0164
2078.00,0.0164
2077.00,0.0163
2076.00,0.0164
2075.00,0.0164
2074.00,0.0163
2073.00,0.0163
2072.00,0.0163
2071.00,0.0164
2070.00,0.0164
2069.00,0.0163
2068.00,0.0160
2067.00,0.0157
2066.00,0.0156
2065.00,0.0157
2064.00,0.0158
2063.00,0.0161
2062.00,0.0162
2061.00,0.0162
2060.00,0.0161
2059.00,0.0159
2058.00,0.0158
2057.00,0.0158
2056.00,0.0158
2055.00,0.0158
2054.00,0.0159
2053.00,0.0162
2052.00,0.0165
2051.00,0.0166
2050.00,0.0164
2049.00,0.0160
2048.00,0.0157
2047.00,0.0157
2046.00,0.0159
2045.00,0.0162
2044.00,0.0165
2043.00,0.0166
2042.00,0.0165
2041.00,0.0164
2040.00,0.0161
2039.00,0.0159
2038.00,0.0159
2037.00,0.0160
2036.00,0.0161
2035.00,0.0160
2034.00,0.0158
2033.00,0.0157
2032.00,0.0159
2031.00,0.0163
2030.00,0.0164
2029.00,0.0162
2028.00,0.0159
2027.00,0.0155
2026.00,0.0153
2025.00,0.0152
2024.00,0.0150
2023.00,0.0148
2022.00,0.0146
2021.00,0.0146
2020.00,0.0145
2019.00,0.0142
2018.00,0.0138
2017.00,0.0136
2016.00,0.0138
2015.00,0.0142
2014.00,0.0147
2013.00,0.0149
2012.00,0.0149
2011.00,0.0148
2010.00,0.0147
2009.00,0.0145
2008.00,0.0143
2007.00,0.0141
2006.00,0.0139
2005.00,0.0138
2004.00,0.0139
2003.00,0.0142
2002.00,0.0146
2001.00,0.0149
2000.00,0.0150
1999.00,0.0149
1998.00,0.0148
1997.00,0.0148
1996.00,0.0151
1995.00,0.0153
1994.00,0.0154
1993.00,0.0154
1992.00,0.0151
1991.00,0.0148
1990.00,0.0145
1989.00,0.0143
1988.00,0.0143
1987.00,0.0142
1986.00,0.0143
1985.00,0.0144
1984.00,0.0146
1983.00,0.0147
1982.00,0.0149
1981.00,0.0149
1980.00,0.0148
1979.00,0.0143
1978.00,0.0137
1977.00,0.0131
1976.00,0.0129
1975.00,0.0132
1974.00,0.0135
1973.00,0.0137
1972.00,0.0136
1971.00,0.0134
1970.00,0.0134
1969.00,0.0136
1968.00,0.0137
1967.00,0.0135
1966.00,0.0132
1965.00,0.0130
1964.00,0.0130
1963.00,0.0130
1962.00,0.0129
1961.00,0.0128
1960.00,0.0128
1959.00,0.0129
1958.00,0.0129
1957.00,0.0129
1956.00,0.0129
1955.00,0.0128
1954.00,0.0129
1953.00,0.0130
1952.00,0.0131
1951.00,0.0130
1950.00,0.0128
1949.00,0.0126
1948.00,0.0126
1947.00,0.0126
1946.00,0.0126
1945.00,0.0125
1944.00,0.0123
1943.00,0.0120
1942.00,0.0118
1941.00,0.0117
1940.00,0.0117
1939.00,0.0116
1938.00,0.0116
1937.00,0.0116
1936.00,0.0117
1935.00,0.0117
1934.00,0.0116
1933.00,0.0116
1932.00,0.0117
1931.00,0.0119
1930.00,0.0121
1929.00,0.0122
1928.00,0.0122
1927.00,0.0122
1926.00,0.0121
1925.00,0.0121
1924.00,0.0120
1923.00,0.0118
1922.00,0.0118
1921.00,0.0119
1920.00,0.0120
1919.00,0.0118
1918.00,0.0116
1917.00,0.0114
1916.00,0.0114
1915.00,0.0116
1914.00,0.0116
1913.00,0.0116
1912.00,0.0116
1911.00,0.0115
1910.00,0.0114
1909.00,0.0112
1908.00,0.0111
1907.00,0.0111
1906.00,0.0112
1905.00,0.0113
1904.00,0.0114
1903.00,0.0114
1902.00,0.0113
1901.00,0.0112
1900.00,0.0111
1899.00,0.0111
1898.00,0.0111
1897.00,0.0110
1896.00,0.0109
1895.00,0.0107
1894.00,0.0107
1893.00,0.0108
1892.00,0.0110
1891.00,0.0110
1890.00,0.0108
1889.00,0.0106
1888.00,0.0104
1887.00,0.0105
1886.00,0.0105
1885.00,0.0106
1884.00,0.0106
1883.00,0.0105
1882.00,0.0105
1881.00,0.0105
1880.00,0.0105
1879.00,0.0105
1878.00,0.0103
1877.00,0.0102
1876.00,0.0102
1875.00,0.0102
1874.00,0.0103
1873.00,0.0105
1872.00,0.0107
1871.00,0.0107
1870.00,0.0105
1869.00,0.0102
1868.00,0.0099
1867.00,0.0097
1866.00,0.0098
1865.00,0.0099
1864.00,0.0100
1863.00,0.0099
1862.00,0.0098
1861.00,0.0097
1860.00,0.0097
1859.00,0.0096
1858.00,0.0097
1857.00,0.0097
1856.00,0.0098
1855.00,0.0097
1854.00,0.0097
1853.00,0.0096
1852.00,0.0096
1851.00,0.0096
1850.00,0.0097
1849.00,0.0097
1848.00,0.0097
1847.00,0.0097
1846.00,0.0098
1845.00,0.0097
1844.00,0.0094
1843.00,0.0092
1842.00,0.0093
1841.00,0.0095
1840.00,0.0096
1839.00,0.0095
1838.00,0.0094
1837.00,0.0094
1836.00,0.0094
1835.00,0.0094
1834.00,0.0095
1833.00,0.0096
1832.00,0.0098
1831.00,0.0098
1830.00,0.0095
1829.00,0.0093
1828.00,0.0093
1827.00,0.0095
1826.00,0.0095
1825.00,0.0094
1824.00,0.0093
1823.00,0.0094
1822.00,0.0095
1821.00,0.0097
1820.00,0.0097
1819.00,0.0096
1818.00,0.0095
1817.00,0.0095
1816.00,0.0095
1815.00,0.0096
1814.00,0.0098
1813.00,0.0099
1812.00,0.0100
1811.00,0.0100
1810.00,0.0100
1809.00,0.0101
1808.00,0.0103
1807.00,0.0105
1806.00,0.0106
1805.00,0.0108
1804.00,0.0109
1803.00,0.0110
1802.00,0.0111
1801.00,0.0111
1800.00,0.0112
1799.00,0.0113
1798.00,0.0115
1797.00,0.0118
1796.00,0.0121
1795.00,0.0124
1794.00,0.0126
1793.00,0.0127
1792.00,0.0127
1791.00,0.0127
1790.00,0.0129
1789.00,0.0133
1788.00,0.0137
1787.00,0.0140
1786.00,0.0143
1785.00,0.0145
1784.00,0.0148
1783.00,0.0150
1782.00,0.0153
1781.00,0.0155
1780.00,0.0156
1779.00,0.0158
1778.00,0.0162
1777.00,0.0167
1776.00,0.0171
1775.00,0.0175
1774.00,0.0178
1773.00,0.0179
1772.00,0.0180
1771.00,0.0181
1770.00,0.0186
1769.00,0.0192
1768.00,0.0196
1767.00,0.0198
1766.00,0.0201
1765.00,0.0206
1764.00,0.0210
1763.00,0.0212
1762.00,0.0213
1761.00,0.0215
1760.00,0.0218
1759.00,0.0222
1758.00,0.0225
1757.00,0.0228
1756.00,0.0231
1755.00,0.0236
1754.00,0.0241
1753.00,0.0245
1752.00,0.0247
1751.00,0.0247
1750.00,0.0249
1749.00,0.0252
1748.00,0.0256
1747.00,0.0261
1746.00,0.0265
1745.00,0.0269
1744.00,0.0273
1743.00,0.0277
1742.00,0.0281
1741.00,0.0286
1740.00,0.0290
1739.00,0.0292
1738.00,0.0296
1737.00,0.0302
1736.00,0.0308
1735.00,0.0312
1734.00,0.0314
1733.00,0.0315
1732.00,0.0318
1731.00,0.0323
1730.00,0.0327
1729.00,0.0332
1728.00,0.0337
1727.00,0.0342
1726.00,0.0348
1725.00,0.0353
1724.00,0.0358
1723.00,0.0363
1722.00,0.0368
1721.00,0.0373
1720.00,0.0377
1719.00,0.0381
1718.00,0.0383
1717.00,0.0387
1716.00,0.0393
1715.00,0.0398
1714.00,0.0403
1713.00,0.0409
1712.00,0.0413
1711.00,0.0417
1710.00,0.0420
1709.00,0.0422
1708.00,0.0425
1707.00,0.0428
1706.00,0.0430
1705.00,0.0432
1704.00,0.0437
1703.00,0.0442
1702.00,0.0448
1701.00,0.0450
1700.00,0.0451
1699.00,0.0451
1698.00,0.0454
1697.00,0.0457
1696.00,0.0459
1695.00,0.0458
1694.00,0.0460
1693.00,0.0463
1692.00,0.0465
1691.00,0.0466
1690.00,0.0467
1689.00,0.0468
1688.00,0.0471
1687.00,0.0473
1686.00,0.0475
1685.00,0.0476
1684.00,0.0476
1683.00,0.0477
1682.00,0.0480
1681.00,0.0482
1680.00,0.0483
1679.00,0.0486
1678.00,0.0490
1677.00,0.0494
1676.00,0.0498
1675.00,0.0500
1674.00,0.0501
1673.00,0.0502
1672.00,0.0503
1671.00,0.0504
1670.00,0.0506
1669.00,0.0508
1668.00,0.0511
1667.00,0.0514
1666.00,0.0517
1665.00,0.0519
1664.00,0.0521
1663.00,0.0523
1662.00,0.0526
1661.00,0.0529
1660.00,0.0533
1659.00,0.0537
1658.00,0.0540
1657.00,0.0542
1656.00,0.0544
1655.00,0.0545
1654.00,0.0547
1653.00,0.0553
1652.00,0.0556
1651.00,0.0560
1650.00,0.0563
1649.00,0.0564
1648.00,0.0566
1647.00,0.0571
1646.00,0.0577
1645.00,0.0583
1644.00,0.0587
1643.00,0.0590
1642.00,0.0592
1641.00,0.0593
1640.00,0.0595
1639.00,0.0598
1638.00,0.0601
1637.00,0.0606
1636.00,0.0615
1635.00,0.0622
1634.00,0.0626
1633.00,0.0629
1632.00,0.0630
1631.00,0.0632
1630.00,0.0634
1629.00,0.0637
1628.00,0.0640
1627.00,0.0645
1626.00,0.0649
1625.00,0.0655
1624.00,0.0660
1623.00,0.0664
1622.00,0.0668
1621.00,0.0671
1620.00,0.0674
1619.00,0.0677
1618.00,0.0680
1617.00,0.0685
1616.00,0.0690
1615.00,0.0693
1614.00,0.0697
1613.00,0.0699
1612.00,0.0701
1611.00,0.0704
1610.00,0.0707
1609.00,0.0710
1608.00,0.0713
1607.00,0.0716
1606.00,0.0720
1605.00,0.0724
1604.00,0.0727
1603.00,0.0730
1602.00,0.0732
1601.00,0.0734
1600.00,0.0736
1599.00,0.0739
1598.00,0.0741
1597.00,0.0744
1596.00,0.0747
1595.00,0.0750
1594.00,0.0752
1593.00,0.0755
1592.00,0.0757
1591.00,0.0759
1590.00,0.0761
1589.00,0.0763
1588.00,0.0765
1587.00,0.0768
1586.00,0.0770
1585.00,0.0771
1584.00,0.0772
1583.00,0.0773
1582.00,0.0774
1581.00,0.0774
1580.00,0.0773
1579.00,0.0774
1578.00,0.0775
1577.00,0.0776
1576.00,0.0778
1575.00,0.0779
1574.00,0.0779
1573.00,0.0778
1572.00,0.0776
1571.00,0.0775
1570.00,0.0774
1569.00,0.0774
1568.00,0.0775
1567.00,0.0775
1566.00,0.0773
1565.00,0.0770
1564.00,0.0768
1563.00,0.0767
1562.00,0.0765
1561.00,0.0761
1560.00,0.0758
1559.00,0.0761
1558.00,0.0760
1557.00,0.0759
1556.00,0.0757
1555.00,0.0754
1554.00,0.0750
1553.00,0.0748
1552.00,0.0745
1551.00,0.0742
1550.00,0.0738
1549.00,0.0734
1548.00,0.0730
1547.00,0.0727
1546.00,0.0723
1545.00,0.0718
1544.00,0.0713
1543.00,0.0709
1542.00,0.0705
1541.00,0.0701
1540.00,0.0698
1539.00,0.0694
1538.00,0.0691
1537.00,0.0689
1536.00,0.0685
1535.00,0.0679
1534.00,0.0671
1533.00,0.0665
1532.00,0.0660
1531.00,0.0657
1530.00,0.0653
1529.00,0.0649
1528.00,0.0644
1527.00,0.0639
1526.00,0.0634
1525.00,0.0630
1524.00,0.0626
1523.00,0.0622
1522.00,0.0618
1521.00,0.0615
1520.00,0.0615
1519.00,0.0615
1518.00,0.0612
1517.00,0.0608
1516.00,0.0605
1515.00,0.0604
1514.00,0.0602
1513.00,0.0600
1512.00,0.0596
1511.00,0.0593
1510.00,0.0589
1509.00,0.0585
1508.00,0.0581
1507.00,0.0578
1506.00,0.0575
1505.00,0.0575
1504.00,0.0575
1503.00,0.0573
1502.00,0.0570
1501.00,0.0567
1500.00,0.0565
1499.00,0.0564
1498.00,0.0563
1497.00,0.0563
1496.00,0.0563
1495.00,0.0562
1494.00,0.0560
1493.00,0.0558
1492.00,0.0556
1491.00,0.0554
1490.00,0.0552
1489.00,0.0552
1488.00,0.0552
1487.00,0.0553
1486.00,0.0553
1485.00,0.0553
1484.00,0.0553
1483.00,0.0552
1482.00,0.0552
1481.00,0.0552
1480.00,0.0553
1479.00,0.0553
1478.00,0.0553
1477.00,0.0554
1476.00,0.0555
1475.00,0.0556
1474.00,0.0558
1473.00,0.0561
1472.00,0.0566
1471.00,0.0570
1470.00,0.0574
1469.00,0.0578
1468.00,0.0581
1467.00,0.0584
1466.00,0.0586
1465.00,0.0588
1464.00,0.0590
1463.00,0.0591
1462.00,0.0592
1461.00,0.0592
1460.00,0.0593
1459.00,0.0594
1458.00,0.0597
1457.00,0.0602
1456.00,0.0606
1455.00,0.0608
1454.00,0.0608
1453.00,0.0609
1452.00,0.0611
1451.00,0.0613
1450.00,0.0615
1449.00,0.0618
1448.00,0.0621
1447.00,0.0623
1446.00,0.0625
1445.00,0.0627
1444.00,0.0628
1443.00,0.0629
1442.00,0.0630
1441.00,0.0632
1440.00,0.0634
1439.00,0.0636
1438.00,0.0639
1437.00,0.0642
1436.00,0.0645
1435.00,0.0646
1434.00,0.0645
1433.00,0.0646
1432.00,0.0646
1431.00,0.0647
1430.00,0.0648
1429.00,0.0650
1428.00,0.0651
1427.00,0.0653
1426.00,0.0654
1425.00,0.0655
1424.00,0.0656
1423.00,0.0658
1422.00,0.0660
1421.00,0.0662
1420.00,0.0665
1419.00,0.0667
1418.00,0.0669
1417.00,0.0671
1416.00,0.0673
1415.00,0.0674
1414.00,0.0674
1413.00,0.0674
1412.00,0.0674
1411.00,0.0675
1410.00,0.0676
1409.00,0.0677
1408.00,0.0679
1407.00,0.0680
1406.00,0.0681
1405.00,0.0682
1404.00,0.0683
1403.00,0.0684
1402.00,0.0684
1401.00,0.0684
1400.00,0.0685
1399.00,0.0686
1398.00,0.0687
1397.00,0.0689
1396.00,0.0690
1395.00,0.0692
1394.00,0.0694
1393.00,0.0696
1392.00,0.0697
1391.00,0.0698
1390.00,0.0699
1389.00,0.0700
1388.00,0.0702
1387.00,0.0703
1386.00,0.0704
1385.00,0.0705
1384.00,0.0706
1383.00,0.0707
1382.00,0.0708
1381.00,0.0710
1380.00,0.0711
1379.00,0.0713
1378.00,0.0713
1377.00,0.0714
1376.00,0.0714
1375.00,0.0715
1374.00,0.0716
1373.00,0.0717
1372.00,0.0718
1371.00,0.0718
1370.00,0.0718
1369.00,0.0718
1368.00,0.0718
1367.00,0.0718
1366.00,0.0717
1365.00,0.0716
1364.00,0.0715
1363.00,0.0715
1362.00,0.0716
1361.00,0.0718
1360.00,0.0718
1359.00,0.0718
1358.00,0.0717
1357.00,0.0717
1356.00,0.0716
1355.00,0.0715
1354.00,0.0714
1353.00,0.0712
1352.00,0.0711
1351.00,0.0709
1350.00,0.0707
1349.00,0.0706
1348.00,0.0705
1347.00,0.0704
1346.00,0.0703
1345.00,0.0701
1344.00,0.0699
1343.00,0.0697
1342.00,0.0695
1341.00,0.0695
1340.00,0.0695
1339.00,0.0695
1338.00,0.0695
1337.00,0.0695
1336.00,0.0694
1335.00,0.0694
1334.00,0.0693
1333.00,0.0692
1332.00,0.0691
1331.00,0.0690
1330.00,0.0689
1329.00,0.0689
1328.00,0.0688
1327.00,0.0688
1326.00,0.0688
1325.00,0.0688
1324.00,0.0688
1323.00,0.0689
1322.00,0.0689
1321.00,0.0690
1320.00,0.0690
1319.00,0.0690
1318.00,0.0689
1317.00,0.0688
1316.00,0.0687
1315.00,0.0687
1314.00,0.0687
1313.00,0.0689
1312.00,0.0691
1311.00,0.0692
1310.00,0.0693
1309.00,0.0693
1308.00,0.0693
1307.00,0.0693
1306.00,0.0693
1305.00,0.0693
1304.00,0.0694
1303.00,0.0695
1302.00,0.0696
1301.00,0.0697
1300.00,0.0698
1299.00,0.0698
1298.00,0.0698
1297.00,0.0698
1296.00,0.0698
1295.00,0.0698
1294.00,0.0700
1293.00,0.0701
1292.00,0.0703
1291.00,0.0705
1290.00,0.0706
1289.00,0.0707
1288.00,0.0708
1287.00,0.0708
1286.00,0.0708
1285.00,0.0709
1284.00,0.0710
1283.00,0.0711
1282.00,0.0711
1281.00,0.0712
1280.00,0.0712
1279.00,0.0712
1278.00,0.0712
1277.00,0.0712
1276.00,0.0713
1275.00,0.0714
1274.00,0.0714
1273.00,0.0714
1272.00,0.0714
1271.00,0.0714
1270.00,0.0715
1269.00,0.0715
1268.00,0.0715
1267.00,0.0716
1266.00,0.0717
1265.00,0.0717
1264.00,0.0717
1263.00,0.0717
1262.00,0.0716
1261.00,0.0716
1260.00,0.0717
1259.00,0.0717
1258.00,0.0718
1257.00,0.0717
1256.00,0.0716
1255.00,0.0715
1254.00,0.0715
1253.00,0.0716
1252.00,0.0716
1251.00,0.0716
1250.00,0.0715
1249.00,0.0715
1248.00,0.0715
1247.00,0.0716
1246.00,0.0717
1245.00,0.0717
1244.00,0.0717
1243.00,0.0718
1242.00,0.0717
1241.00,0.0717
1240.00,0.0717
1239.00,0.0717
1238.00,0.0717
1237.00,0.0717
1236.00,0.0718
1235.00,0.0717
1234.00,0.0717
1233.00,0.0716
1232.00,0.0716
1231.00,0.0716
1230.00,0.0716
1229.00,0.0716
1228.00,0.0716
1227.00,0.0717
1226.00,0.0716
1225.00,0.0715
1224.00,0.0714
1223.00,0.0713
1222.00,0.0714
1221.00,0.0714
1220.00,0.0715
1219.00,0.0715
1218.00,0.0715
1217.00,0.0715
1216.00,0.0715
1215.00,0.0715
1214.00,0.0715
1213.00,0.0715
1212.00,0.0715
1211.00,0.0715
1210.00,0.0716
1209.00,0.0716
1208.00,0.0716
1207.00,0.0716
1206.00,0.0715
1205.00,0.0714
1204.00,0.0713
1203.00,0.0713
1202.00,0.0712
1201.00,0.0712
1200.00,0.0711
1199.00,0.0711
1198.00,0.0710
1197.00,0.0708
1196.00,0.0707
1195.00,0.0706
1194.00,0.0705
1193.00,0.0704
1192.00,0.0704
1191.00,0.0703
1190.00,0.0701
1189.00,0.0700
1188.00,0.0698
1187.00,0.0697
1186.00,0.0696
1185.00,0.0695
1184.00,0.0695
1183.00,0.0694
1182.00,0.0692
1181.00,0.0691
1180.00,0.0689
1179.00,0.0688
1178.00,0.0688
1177.00,0.0687
1176.00,0.0687
1175.00,0.0687
1174.00,0.0688
1173.00,0.0688
1172.00,0.0687
1171.00,0.0685
1170.00,0.0683
1169.00,0.0682
1168.00,0.0681
1167.00,0.0681
1166.00,0.0680
1165.00,0.0680
1164.00,0.0680
1163.00,0.0679
1162.00,0.0678
1161.00,0.0678
1160.00,0.0677
1159.00,0.0676
1158.00,0.0675
1157.00,0.0675
1156.00,0.0675
1155.00,0.0676
1154.00,0.0676
1153.00,0.0675
1152.00,0.0673
1151.00,0.0671
1150.00,0.0669
1149.00,0.0667
1148.00,0.0667
1147.00,0.0666
1146.00,0.0667
1145.00,0.0667
1144.00,0.0667
1143.00,0.0668
1142.00,0.0668
1141.00,0.0668
1140.00,0.0668
1139.00,0.0667
1138.00,0.0666
1137.00,0.0667
1136.00,0.0667
1135.00,0.0668
1134.00,0.0668
1133.00,0.0669
1132.00,0.0668
1131.00,0.0668
1130.00,0.0667
1129.00,0.0668
1128.00,0.0669
1127.00,0.0669
1126.00,0.0668
1125.00,0.0666
1124.00,0.0666
1123.00,0.0668
1122.00,0.0672
1121.00,0.0675
1120.00,0.0677
1119.00,0.0678
1118.00,0.0678
1117.00,0.0677
1116.00,0.0677
1115.00,0.0678
1114.00,0.0678
1113.00,0.0678
1112.00,0.0677
1111.00,0.0677
1110.00,0.0677
1109.00,0.0678
1108.00,0.0678
1107.00,0.0677
1106.00,0.0677
1105.00,0.0676
1104.00,0.0676
1103.00,0.0677
1102.00,0.0677
1101.00,0.0677
1100.00,0.0676
1099.00,0.0676
1098.00,0.0676
1097.00,0.0676
1096.00,0.0676
1095.00,0.0675
1094.00,0.0675
1093.00,0.0675
1092.00,0.0676
1091.00,0.0677
1090.00,0.0677
1089.00,0.0676
1088.00,0.0674
1087.00,0.0674
1086.00,0.0675
1085.00,0.0675
1084.00,0.0676
1083.00,0.0677
1082.00,0.0677
1081.00,0.0678
1080.00,0.0679
1079.00,0.0681
1078.00,0.0683
1077.00,0.0686
1076.00,0.0686
1075.00,0.0684
1074.00,0.0681
1073.00,0.0680
1072.00,0.0679
1071.00,0.0679
1070.00,0.0679
1069.00,0.0677
1068.00,0.0676
1067.00,0.0677
1066.00,0.0678
1065.00,0.0681
1064.00,0.0683
1063.00,0.0684
1062.00,0.0684
1061.00,0.0682
1060.00,0.0680
1059.00,0.0679
1058.00,0.0680
1057.00,0.0681
1056.00,0.0683
1055.00,0.0684
1054.00,0.0686
1053.00,0.0688
1052.00,0.0689
1051.00,0.0690
1050.00,0.0690
1049.00,0.0691
1048.00,0.0692
1047.00,0.0693
1046.00,0.0693
1045.00,0.0693
1044.00,0.0693
1043.00,0.0693
1042.00,0.0691
1041.00,0.0690
1040.00,0.0690
1039.00,0.0692
1038.00,0.0695
1037.00,0.0696
1036.00,0.0697
1035.00,0.0696
1034.00,0.0695
1033.00,0.0694
1032.00,0.0693
1031.00,0.0693
1030.00,0.0693
1029.00,0.0692
1028.00,0.0691
1027.00,0.0690
1026.00,0.0690
1025.00,0.0690
1024.00,0.0690
1023.00,0.0689
1022.00,0.0687
1021.00,0.0685
1020.00,0.0683
1019.00,0.0682
1018.00,0.0681
1017.00,0.0680
1016.00,0.0680
1015.00,0.0680
1014.00,0.0680
1013.00,0.0679
1012.00,0.0677
1011.00,0.0676
1010.00,0.0675
1009.00,0.0673
1008.00,0.0671
1007.00,0.0669
1006.00,0.0667
1005.00,0.0666
1004.00,0.0666
1003.00,0.0666
1002.00,0.0665
1001.00,0.0663
1000.00,0.0660
999.00,0.0655
998.00,0.0652
997.00,0.0651
996.00,0.0651
995.00,0.0652
994.00,0.0651
993.00,0.0648
992.00,0.0645
991.00,0.0642
990.00,0.0640
989.00,0.0638
988.00,0.0638
987.00,0.0638
986.00,0.0639
985.00,0.0639
984.00,0.0637
983.00,0.0634
982.00,0.0631
981.00,0.0630
980.00,0.0630
979.00,0.0630
978.00,0.0628
977.00,0.0625
976.00,0.0622
975.00,0.0620
974.00,0.0619
973.00,0.0619
972.00,0.0619
971.00,0.0618
970.00,0.0616
969.00,0.0613
968.00,0.0612
967.00,0.0611
966.00,0.0609
965.00,0.0608
964.00,0.0607
963.00,0.0606
962.00,0.0606
961.00,0.0606
960.00,0.0605
959.00,0.0603
958.00,0.0601
957.00,0.0601
956.00,0.0600
955.00,0.0599
954.00,0.0597
953.00,0.0596
952.00,0.0597
951.00,0.0598
950.00,0.0599
949.00,0.0599
948.00,0.0599
947.00,0.0597
946.00,0.0595
945.00,0.0594
944.00,0.0594
943.00,0.0594
942.00,0.0594
941.00,0.0594
940.00,0.0595
939.00,0.0596
938.00,0.0597
937.00,0.0596
936.00,0.0594
935.00,0.0592
934.00,0.0591
933.00,0.0592
932.00,0.0595
931.00,0.0598
930.00,0.0599
929.00,0.0600
928.00,0.0602
927.00,0.0603
926.00,0.0603
925.00,0.0603
924.00,0.0602
923.00,0.0601
922.00,0.0601
921.00,0.0601
920.00,0.0602
919.00,0.0603
918.00,0.0603
917.00,0.0604
916.00,0.0605
915.00,0.0607
914.00,0.0608
913.00,0.0608
912.00,0.0608
911.00,0.0607
910.00,0.0606
909.00,0.0604
908.00,0.0601
907.00,0.0600
906.00,0.0601
905.00,0.0604
904.00,0.0607
903.00,0.0611
902.00,0.0612
901.00,0.0612
900.00,0.0611
899.00,0.0611
898.00,0.0611
897.00,0.0613
896.00,0.0614
895.00,0.0615
894.00,0.0615
893.00,0.0614
892.00,0.0613
891.00,0.0613
890.00,0.0613
889.00,0.0614
888.00,0.0615
887.00,0.0614
886.00,0.0611
885.00,0.0610
884.00,0.0612
883.00,0.0616
882.00,0.0620
881.00,0.0621
880.00,0.0621
879.00,0.0620
878.00,0.0619
877.00,0.0617
876.00,0.0616
875.00,0.0616
874.00,0.0616
873.00,0.0617
872.00,0.0617
871.00,0.0618
870.00,0.0618
869.00,0.0617
868.00,0.0617
867.00,0.0618
866.00,0.0621
865.00,0.0625
864.00,0.0628
863.00,0.0630
862.00,0.0631
861.00,0.0632
860.00,0.0632
859.00,0.0631
858.00,0.0629
857.00,0.0628
856.00,0.0629
855.00,0.0632
854.00,0.0635
853.00,0.0637
852.00,0.0637
851.00,0.0637
850.00,0.0638
849.00,0.0641
848.00,0.0645
847.00,0.0649
846.00,0.0652
845.00,0.0655
844.00,0.0657
843.00,0.0656
842.00,0.0655
841.00,0.0653
840.00,0.0652
839.00,0.0651
838.00,0.0652
837.00,0.0654
836.00,0.0658
835.00,0.0661
834.00,0.0663
833.00,0.0664
832.00,0.0665
831.00,0.0665
830.00,0.0664
829.00,0.0663
828.00,0.0664
827.00,0.0666
826.00,0.0669
825.00,0.0673
824.00,0.0676
823.00,0.0681
822.00,0.0685
821.00,0.0689
820.00,0.0692
819.00,0.0693
818.00,0.0692
817.00,0.0690
816.00,0.0689
815.00,0.0690
814.00,0.0693
813.00,0.0698
812.00,0.0701
811.00,0.0703
810.00,0.0705
809.00,0.0706
808.00,0.0708
807.00,0.0709
806.00,0.0708
805.00,0.0707
804.00,0.0706
803.00,0.0707
802.00,0.0709
801.00,0.0713
800.00,0.0719
799.00,0.0723
798.00,0.0724
797.00,0.0724
796.00,0.0723
795.00,0.0722
794.00,0.0722
793.00,0.0723
792.00,0.0726
791.00,0.0730
790.00,0.0733
789.00,0.0736
788.00,0.0736
787.00,0.0736
786.00,0.0738
785.00,0.0741
784.00,0.0744
783.00,0.0746
782.00,0.0747
781.00,0.0746
780.00,0.0745
779.00,0.0745
778.00,0.0746
777.00,0.0747
776.00,0.0750
775.00,0.0751
774.00,0.0750
773.00,0.0750
772.00,0.0750
771.00,0.0752
770.00,0.0754
769.00,0.0756
768.00,0.0757
767.00,0.0758
766.00,0.0758
765.00,0.0759
764.00,0.0761
763.00,0.0762
762.00,0.0760
761.00,0.0759
760.00,0.0759
759.00,0.0762
758.00,0.0766
757.00,0.0769
756.00,0.0769
755.00,0.0768
754.00,0.0767
753.00,0.0767
752.00,0.0769
751.00,0.0774
750.00,0.0778
749.00,0.0782
748.00,0.0784
747.00,0.0785
746.00,0.0783
745.00,0.0781
744.00,0.0780
743.00,0.0779
742.00,0.0780
741.00,0.0780
740.00,0.0779
739.00,0.0778
738.00,0.0777
737.00,0.0777
736.00,0.0778
735.00,0.0778
734.00,0.0780
733.00,0.0781
732.00,0.0783
731.00,0.0784
730.00,0.0787
729.00,0.0790
728.00,0.0794
727.00,0.0799
726.00,0.0803
725.00,0.0804
724.00,0.0803
723.00,0.0801
722.00,0.0800
721.00,0.0800
720.00,0.0801
719.00,0.0802
718.00,0.0803
717.00,0.0805
716.00,0.0806
715.00,0.0807
714.00,0.0808
713.00,0.0810
712.00,0.0813
711.00,0.0816
710.00,0.0818
709.00,0.0819
708.00,0.0819
707.00,0.0820
706.00,0.0822
705.00,0.0825
704.00,0.0830
703.00,0.0834
702.00,0.0835
701.00,0.0835
700.00,0.0834
699.00,0.0835
698.00,0.0836
697.00,0.0837
696.00,0.0839
695.00,0.0840
694.00,0.0842
693.00,0.0845
692.00,0.0848
691.00,0.0850
690.00,0.0854
689.00,0.0858
688.00,0.0862
687.00,0.0863
686.00,0.0862
685.00,0.0862
684.00,0.0861
683.00,0.0859
682.00,0.0858
681.00,0.0860
680.00,0.0863
679.00,0.0867
678.00,0.0872
677.00,0.0876
676.00,0.0879
675.00,0.0880
674.00,0.0880
673.00,0.0882
672.00,0.0885
671.00,0.0889
670.00,0.0895
669.00,0.0905
668.00,0.0916
667.00,0.0920
666.00,0.0918
665.00,0.0915
664.00,0.0915
663.00,0.0914
662.00,0.0910
661.00,0.0902
660.00,0.0895
659.00,0.0892
658.00,0.0897
657.00,0.0908
656.00,0.0919
655.00,0.0924
654.00,0.0922
653.00,0.0917
652.00,0.0912
651.00,0.0910
650.00,0.0912
