Created as New Dataset,Monday, April 03 2023
cm-1,A
4000.00,0.0461
3999.00,0.0461
3998.00,0.0461
3997.00,0.0461
3996.00,0.0461
3995.00,0.0461
3994.00,0.0460
3993.00,0.0459
3992.00,0.0459
3991.00,0.0459
3990.00,0.0458
3989.00,0.0458
3988.00,0.0457
3987.00,0.0457
3986.00,0.0456
3985.00,0.0457
3984.00,0.0457
3983.00,0.0458
3982.00,0.0458
3981.00,0.0458
3980.00,0.0457
3979.00,0.0457
3978.00,0.0456
3977.00,0.0456
3976.00,0.0456
3975.00,0.0455
3974.00,0.0455
3973.00,0.0455
3972.00,0.0456
3971.00,0.0456
3970.00,0.0456
3969.00,0.0456
3968.00,0.0456
3967.00,0.0455
3966.00,0.0454
3965.00,0.0454
3964.00,0.0454
3963.00,0.0455
3962.00,0.0456
3961.00,0.0455
3960.00,0.0454
3959.00,0.0453
3958.00,0.0453
3957.00,0.0452
3956.00,0.0452
3955.00,0.0451
3954.00,0.0451
3953.00,0.0451
3952.00,0.0451
3951.00,0.0452
3950.00,0.0453
3949.00,0.0453
3948.00,0.0453
3947.00,0.0452
3946.00,0.0451
3945.00,0.0450
3944.00,0.0449
3943.00,0.0449
3942.00,0.0448
3941.00,0.0448
3940.00,0.0447
3939.00,0.0448
3938.00,0.0448
3937.00,0.0448
3936.00,0.0448
3935.00,0.0447
3934.00,0.0446
3933.00,0.0447
3932.00,0.0447
3931.00,0.0447
3930.00,0.0447
3929.00,0.0446
3928.00,0.0446
3927.00,0.0446
3926.00,0.0447
3925.00,0.0448
3924.00,0.0447
3923.00,0.0446
3922.00,0.0445
3921.00,0.0444
3920.00,0.0443
3919.00,0.0443
3918.00,0.0443
3917.00,0.0444
3916.00,0.0444
3915.00,0.0443
3914.00,0.0443
3913.00,0.0444
3912.00,0.0444
3911.00,0.0445
3910.00,0.0444
3909.00,0.0442
3908.00,0.0440
3907.00,0.0437
3906.00,0.0435
3905.00,0.0434
3904.00,0.0432
3903.00,0.0431
3902.00,0.0430
3901.00,0.0430
3900.00,0.0431
3899.00,0.0433
3898.00,0.0433
3897.00,0.0434
3896.00,0.0435
3895.00,0.0436
3894.00,0.0437
3893.00,0.0437
3892.00,0.0438
3891.00,0.0436
3890.00,0.0432
3889.00,0.0428
3888.00,0.0427
3887.00,0.0429
3886.00,0.0431
3885.00,0.0431
3884.00,0.0429
3883.00,0.0428
3882.00,0.0429
3881.00,0.0431
3880.00,0.0432
3879.00,0.0431
3878.00,0.0430
3877.00,0.0431
3876.00,0.0433
3875.00,0.0433
3874.00,0.0432
3873.00,0.0428
3872.00,0.0427
3871.00,0.0428
3870.00,0.0429
3869.00,0.0428
3868.00,0.0426
3867.00,0.0425
3866.00,0.0426
3865.00,0.0429
3864.00,0.0432
3863.00,0.0433
3862.00,0.0433
3861.00,0.0433
3860.00,0.0432
3859.00,0.0430
3858.00,0.0426
3857.00,0.0418
3856.00,0.0409
3855.00,0.0406
3854.00,0.0411
3853.00,0.0413
3852.00,0.0412
3851.00,0.0414
3850.00,0.0422
3849.00,0.0429
3848.00,0.0432
3847.00,0.0433
3846.00,0.0432
3845.00,0.0430
3844.00,0.0428
3843.00,0.0426
3842.00,0.0423
3841.00,0.0421
3840.00,0.0421
3839.00,0.0422
3838.00,0.0423
3837.00,0.0422
3836.00,0.0421
3835.00,0.0421
3834.00,0.0423
3833.00,0.0425
3832.00,0.0426
3831.00,0.0426
3830.00,0.0426
3829.00,0.0427
3828.00,0.0428
3827.00,0.0429
3826.00,0.0428
3825.00,0.0424
3824.00,0.0421
3823.00,0.0421
3822.00,0.0422
3821.00,0.0422
3820.00,0.0418
3819.00,0.0414
3818.00,0.0414
3817.00,0.0418
3816.00,0.0423
3815.00,0.0425
3814.00,0.0426
3813.00,0.0427
3812.00,0.0428
3811.00,0.0427
3810.00,0.0424
3809.00,0.0422
3808.00,0.0422
3807.00,0.0422
3806.00,0.0421
3805.00,0.0419
3804.00,0.0418
3803.00,0.0420
3802.00,0.0423
3801.00,0.0424
3800.00,0.0421
3799.00,0.0420
3798.00,0.0422
3797.00,0.0424
3796.00,0.0425
3795.00,0.0425
3794.00,0.0424
3793.00,0.0424
3792.00,0.0426
3791.00,0.0427
3790.00,0.0428
3789.00,0.0428
3788.00,0.0428
3787.00,0.0428
3786.00,0.0429
3785.00,0.0429
3784.00,0.0428
3783.00,0.0426
3782.00,0.0424
3781.00,0.0423
3780.00,0.0424
3779.00,0.0423
3778.00,0.0422
3777.00,0.0422
3776.00,0.0422
3775.00,0.0422
3774.00,0.0422
3773.00,0.0420
3772.00,0.0419
3771.00,0.0419
3770.00,0.0419
3769.00,0.0417
3768.00,0.0415
3767.00,0.0416
3766.00,0.0417
3765.00,0.0418
3764.00,0.0418
3763.00,0.0417
3762.00,0.0417
3761.00,0.0418
3760.00,0.0419
3759.00,0.0418
3758.00,0.0416
3757.00,0.0413
3756.00,0.0410
3755.00,0.0405
3754.00,0.0401
3753.00,0.0398
3752.00,0.0399
3751.00,0.0402
3750.00,0.0402
3749.00,0.0399
3748.00,0.0397
3747.00,0.0396
3746.00,0.0397
3745.00,0.0398
3744.00,0.0398
3743.00,0.0396
3742.00,0.0397
3741.00,0.0403
3740.00,0.0408
3739.00,0.0408
3738.00,0.0407
3737.00,0.0406
3736.00,0.0406
3735.00,0.0405
3734.00,0.0402
3733.00,0.0400
3732.00,0.0399
3731.00,0.0400
3730.00,0.0402
3729.00,0.0405
3728.00,0.0408
3727.00,0.0410
3726.00,0.0411
3725.00,0.0410
3724.00,0.0408
3723.00,0.0408
3722.00,0.0408
3721.00,0.0409
3720.00,0.0410
3719.00,0.0411
3718.00,0.0410
3717.00,0.0409
3716.00,0.0406
3715.00,0.0403
3714.00,0.0401
3713.00,0.0402
3712.00,0.0403
3711.00,0.0404
3710.00,0.0402
3709.00,0.0401
3708.00,0.0402
3707.00,0.0405
3706.00,0.0408
3705.00,0.0409
3704.00,0.0410
3703.00,0.0409
3702.00,0.0409
3701.00,0.0407
3700.00,0.0406
3699.00,0.0407
3698.00,0.0408
3697.00,0.0409
3696.00,0.0409
3695.00,0.0407
3694.00,0.0404
3693.00,0.0400
3692.00,0.0398
3691.00,0.0398
3690.00,0.0400
3689.00,0.0400
3688.00,0.0400
3687.00,0.0399
3686.00,0.0402
3685.00,0.0405
3684.00,0.0407
3683.00,0.0407
3682.00,0.0406
3681.00,0.0403
3680.00,0.0398
3679.00,0.0392
3678.00,0.0387
3677.00,0.0385
3676.00,0.0387
3675.00,0.0385
3674.00,0.0381
3673.00,0.0379
3672.00,0.0382
3671.00,0.0389
3670.00,0.0395
3669.00,0.0397
3668.00,0.0396
3667.00,0.0396
3666.00,0.0399
3665.00,0.0403
3664.00,0.0405
3663.00,0.0406
3662.00,0.0407
3661.00,0.0407
3660.00,0.0406
3659.00,0.0406
3658.00,0.0406
3657.00,0.0406
3656.00,0.0405
3655.00,0.0402
3654.00,0.0399
3653.00,0.0396
3652.00,0.0394
3651.00,0.0393
3650.00,0.0396
3649.00,0.0398
3648.00,0.0397
3647.00,0.0398
3646.00,0.0400
3645.00,0.0405
3644.00,0.0410
3643.00,0.0414
3642.00,0.0418
3641.00,0.0419
3640.00,0.0420
3639.00,0.0420
3638.00,0.0420
3637.00,0.0420
3636.00,0.0421
3635.00,0.0421
3634.00,0.0419
3633.00,0.0416
3632.00,0.0411
3631.00,0.0408
3630.00,0.0410
3629.00,0.0414
3628.00,0.0415
3627.00,0.0414
3626.00,0.0416
3625.00,0.0421
3624.00,0.0425
3623.00,0.0425
3622.00,0.0425
3621.00,0.0425
3620.00,0.0426
3619.00,0.0428
3618.00,0.0428
3617.00,0.0428
3616.00,0.0429
3615.00,0.0432
3614.00,0.0434
3613.00,0.0434
3612.00,0.0432
3611.00,0.0431
3610.00,0.0432
3609.00,0.0435
3608.00,0.0438
3607.00,0.0440
3606.00,0.0440
3605.00,0.0441
3604.00,0.0442
3603.00,0.0445
3602.00,0.0448
3601.00,0.0451
3600.00,0.0452
3599.00,0.0452
3598.00,0.0451
3597.00,0.0450
3596.00,0.0450
3595.00,0.0451
3594.00,0.0451
3593.00,0.0450
3592.00,0.0448
3591.00,0.0446
3590.00,0.0446
3589.00,0.0448
3588.00,0.0451
3587.00,0.0454
3586.00,0.0454
3585.00,0.0454
3584.00,0.0456
3583.00,0.0458
3582.00,0.0461
3581.00,0.0462
3580.00,0.0463
3579.00,0.0464
3578.00,0.0464
3577.00,0.0465
3576.00,0.0466
3575.00,0.0467
3574.00,0.0468
3573.00,0.0467
3572.00,0.0466
3571.00,0.0464
3570.00,0.0461
3569.00,0.0461
3568.00,0.0465
3567.00,0.0468
3566.00,0.0470
3565.00,0.0469
3564.00,0.0469
3563.00,0.0470
3562.00,0.0473
3561.00,0.0475
3560.00,0.0477
3559.00,0.0478
3558.00,0.0478
3557.00,0.0479
3556.00,0.0480
3555.00,0.0481
3554.00,0.0482
3553.00,0.0483
3552.00,0.0484
3551.00,0.0484
3550.00,0.0484
3549.00,0.0484
3548.00,0.0485
3547.00,0.0487
3546.00,0.0489
3545.00,0.0490
3544.00,0.0490
3543.00,0.0490
3542.00,0.0490
3541.00,0.0490
3540.00,0.0490
3539.00,0.0489
3538.00,0.0489
3537.00,0.0489
3536.00,0.0490
3535.00,0.0492
3534.00,0.0493
3533.00,0.0494
3532.00,0.0495
3531.00,0.0495
3530.00,0.0495
3529.00,0.0495
3528.00,0.0495
3527.00,0.0496
3526.00,0.0497
3525.00,0.0499
3524.00,0.0501
3523.00,0.0502
3522.00,0.0502
3521.00,0.0501
3520.00,0.0500
3519.00,0.0499
3518.00,0.0499
3517.00,0.0499
3516.00,0.0500
3515.00,0.0500
3514.00,0.0502
3513.00,0.0504
3512.00,0.0505
3511.00,0.0506
3510.00,0.0507
3509.00,0.0506
3508.00,0.0506
3507.00,0.0505
3506.00,0.0506
3505.00,0.0507
3504.00,0.0509
3503.00,0.0511
3502.00,0.0512
3501.00,0.0512
3500.00,0.0512
3499.00,0.0512
3498.00,0.0513
3497.00,0.0514
3496.00,0.0514
3495.00,0.0514
3494.00,0.0513
3493.00,0.0513
3492.00,0.0513
3491.00,0.0513
3490.00,0.0514
3489.00,0.0515
3488.00,0.0516
3487.00,0.0516
3486.00,0.0517
3485.00,0.0517
3484.00,0.0517
3483.00,0.0518
3482.00,0.0519
3481.00,0.0519
3480.00,0.0520
3479.00,0.0520
3478.00,0.0520
3477.00,0.0520
3476.00,0.0521
3475.00,0.0522
3474.00,0.0522
3473.00,0.0523
3472.00,0.0523
3471.00,0.0524
3470.00,0.0525
3469.00,0.0525
3468.00,0.0526
3467.00,0.0527
3466.00,0.0528
3465.00,0.0529
3464.00,0.0529
3463.00,0.0529
3462.00,0.0528
3461.00,0.0527
3460.00,0.0528
3459.00,0.0528
3458.00,0.0529
3457.00,0.0530
3456.00,0.0530
3455.00,0.0530
3454.00,0.0530
3453.00,0.0530
3452.00,0.0531
3451.00,0.0531
3450.00,0.0531
3449.00,0.0532
3448.00,0.0533
3447.00,0.0534
3446.00,0.0535
3445.00,0.0535
3444.00,0.0536
3443.00,0.0536
3442.00,0.0536
3441.00,0.0535
3440.00,0.0534
3439.00,0.0534
3438.00,0.0535
3437.00,0.0535
3436.00,0.0536
3435.00,0.0536
3434.00,0.0536
3433.00,0.0537
3432.00,0.0538
3431.00,0.0538
3430.00,0.0539
3429.00,0.0539
3428.00,0.0538
3427.00,0.0539
3426.00,0.0539
3425.00,0.0540
3424.00,0.0542
3423.00,0.0543
3422.00,0.0544
3421.00,0.0544
3420.00,0.0544
3419.00,0.0544
3418.00,0.0544
3417.00,0.0543
3416.00,0.0543
3415.00,0.0542
3414.00,0.0543
3413.00,0.0543
3412.00,0.0544
3411.00,0.0544
3410.00,0.0545
3409.00,0.0545
3408.00,0.0546
3407.00,0.0547
3406.00,0.0548
3405.00,0.0548
3404.00,0.0547
3403.00,0.0547
3402.00,0.0546
3401.00,0.0546
3400.00,0.0547
3399.00,0.0548
3398.00,0.0549
3397.00,0.0549
3396.00,0.0548
3395.00,0.0548
3394.00,0.0548
3393.00,0.0549
3392.00,0.0550
3391.00,0.0550
3390.00,0.0551
3389.00,0.0551
3388.00,0.0551
3387.00,0.0550
3386.00,0.0550
3385.00,0.0550
3384.00,0.0551
3383.00,0.0551
3382.00,0.0552
3381.00,0.0552
3380.00,0.0553
3379.00,0.0554
3378.00,0.0554
3377.00,0.0554
3376.00,0.0554
3375.00,0.0554
3374.00,0.0554
3373.00,0.0553
3372.00,0.0553
3371.00,0.0553
3370.00,0.0553
3369.00,0.0554
3368.00,0.0554
3367.00,0.0554
3366.00,0.0554
3365.00,0.0554
3364.00,0.0553
3363.00,0.0554
3362.00,0.0555
3361.00,0.0557
3360.00,0.0558
3359.00,0.0558
3358.00,0.0558
3357.00,0.0558
3356.00,0.0558
3355.00,0.0558
3354.00,0.0558
3353.00,0.0558
3352.00,0.0558
3351.00,0.0558
3350.00,0.0558
3349.00,0.0558
3348.00,0.0558
3347.00,0.0557
3346.00,0.0557
3345.00,0.0556
3344.00,0.0556
3343.00,0.0556
3342.00,0.0557
3341.00,0.0557
3340.00,0.0558
3339.00,0.0559
3338.00,0.0559
3337.00,0.0559
3336.00,0.0559
3335.00,0.0559
3334.00,0.0559
3333.00,0.0559
3332.00,0.0559
3331.00,0.0558
3330.00,0.0557
3329.00,0.0557
3328.00,0.0556
3327.00,0.0557
3326.00,0.0558
3325.00,0.0559
3324.00,0.0559
3323.00,0.0560
3322.00,0.0560
3321.00,0.0559
3320.00,0.0559
3319.00,0.0559
3318.00,0.0559
3317.00,0.0559
3316.00,0.0559
3315.00,0.0559
3314.00,0.0559
3313.00,0.0559
3312.00,0.0558
3311.00,0.0558
3310.00,0.0559
3309.00,0.0559
3308.00,0.0560
3307.00,0.0560
3306.00,0.0560
3305.00,0.0559
3304.00,0.0559
3303.00,0.0560
3302.00,0.0560
3301.00,0.0561
3300.00,0.0561
3299.00,0.0560
3298.00,0.0560
3297.00,0.0560
3296.00,0.0560
3295.00,0.0561
3294.00,0.0561
3293.00,0.0561
3292.00,0.0561
3291.00,0.0561
3290.00,0.0561
3289.00,0.0561
3288.00,0.0560
3287.00,0.0560
3286.00,0.0561
3285.00,0.0561
3284.00,0.0562
3283.00,0.0562
3282.00,0.0562
3281.00,0.0562
3280.00,0.0561
3279.00,0.0561
3278.00,0.0561
3277.00,0.0561
3276.00,0.0561
3275.00,0.0561
3274.00,0.0561
3273.00,0.0562
3272.00,0.0562
3271.00,0.0563
3270.00,0.0564
3269.00,0.0565
3268.00,0.0565
3267.00,0.0565
3266.00,0.0564
3265.00,0.0563
3264.00,0.0562
3263.00,0.0562
3262.00,0.0561
3261.00,0.0562
3260.00,0.0562
3259.00,0.0563
3258.00,0.0563
3257.00,0.0562
3256.00,0.0562
3255.00,0.0562
3254.00,0.0562
3253.00,0.0563
3252.00,0.0563
3251.00,0.0563
3250.00,0.0563
3249.00,0.0563
3248.00,0.0563
3247.00,0.0563
3246.00,0.0563
3245.00,0.0563
3244.00,0.0563
3243.00,0.0563
3242.00,0.0562
3241.00,0.0562
3240.00,0.0562
3239.00,0.0563
3238.00,0.0564
3237.00,0.0565
3236.00,0.0565
3235.00,0.0566
3234.00,0.0566
3233.00,0.0566
3232.00,0.0566
3231.00,0.0566
3230.00,0.0565
3229.00,0.0564
3228.00,0.0564
3227.00,0.0564
3226.00,0.0564
3225.00,0.0564
3224.00,0.0564
3223.00,0.0564
3222.00,0.0564
3221.00,0.0564
3220.00,0.0564
3219.00,0.0564
3218.00,0.0563
3217.00,0.0563
3216.00,0.0564
3215.00,0.0564
3214.00,0.0565
3213.00,0.0564
3212.00,0.0564
3211.00,0.0563
3210.00,0.0563
3209.00,0.0563
3208.00,0.0564
3207.00,0.0564
3206.00,0.0565
3205.00,0.0565
3204.00,0.0565
3203.00,0.0565
3202.00,0.0565
3201.00,0.0565
3200.00,0.0565
3199.00,0.0565
3198.00,0.0565
3197.00,0.0565
3196.00,0.0565
3195.00,0.0564
3194.00,0.0564
3193.00,0.0563
3192.00,0.0563
3191.00,0.0563
3190.00,0.0563
3189.00,0.0563
3188.00,0.0562
3187.00,0.0561
3186.00,0.0561
3185.00,0.0561
3184.00,0.0562
3183.00,0.0563
3182.00,0.0563
3181.00,0.0563
3180.00,0.0563
3179.00,0.0562
3178.00,0.0561
3177.00,0.0560
3176.00,0.0560
3175.00,0.0560
3174.00,0.0561
3173.00,0.0561
3172.00,0.0561
3171.00,0.0561
3170.00,0.0561
3169.00,0.0561
3168.00,0.0561
3167.00,0.0561
3166.00,0.0561
3165.00,0.0562
3164.00,0.0562
3163.00,0.0562
3162.00,0.0562
3161.00,0.0561
3160.00,0.0560
3159.00,0.0559
3158.00,0.0558
3157.00,0.0558
3156.00,0.0558
3155.00,0.0559
3154.00,0.0560
3153.00,0.0560
3152.00,0.0560
3151.00,0.0560
3150.00,0.0559
3149.00,0.0559
3148.00,0.0559
3147.00,0.0559
3146.00,0.0559
3145.00,0.0558
3144.00,0.0558
3143.00,0.0558
3142.00,0.0558
3141.00,0.0557
3140.00,0.0557
3139.00,0.0557
3138.00,0.0557
3137.00,0.0557
3136.00,0.0558
3135.00,0.0558
3134.00,0.0558
3133.00,0.0557
3132.00,0.0557
3131.00,0.0557
3130.00,0.0557
3129.00,0.0557
3128.00,0.0557
3127.00,0.0558
3126.00,0.0557
3125.00,0.0557
3124.00,0.0557
3123.00,0.0556
3122.00,0.0556
3121.00,0.0555
3120.00,0.0555
3119.00,0.0555
3118.00,0.0555
3117.00,0.0555
3116.00,0.0555
3115.00,0.0556
3114.00,0.0556
3113.00,0.0556
3112.00,0.0555
3111.00,0.0555
3110.00,0.0554
3109.00,0.0554
3108.00,0.0554
3107.00,0.0555
3106.00,0.0555
3105.00,0.0556
3104.00,0.0556
3103.00,0.0556
3102.00,0.0555
3101.00,0.0555
3100.00,0.0554
3099.00,0.0553
3098.00,0.0553
3097.00,0.0553
3096.00,0.0554
3095.00,0.0555
3094.00,0.0555
3093.00,0.0556
3092.00,0.0556
3091.00,0.0555
3090.00,0.0554
3089.00,0.0552
3088.00,0.0552
3087.00,0.0552
3086.00,0.0553
3085.00,0.0553
3084.00,0.0554
3083.00,0.0554
3082.00,0.0554
3081.00,0.0553
3080.00,0.0554
3079.00,0.0554
3078.00,0.0554
3077.00,0.0553
3076.00,0.0553
3075.00,0.0553
3074.00,0.0553
3073.00,0.0553
3072.00,0.0553
3071.00,0.0553
3070.00,0.0553
3069.00,0.0553
3068.00,0.0553
3067.00,0.0553
3066.00,0.0553
3065.00,0.0552
3064.00,0.0551
3063.00,0.0551
3062.00,0.0551
3061.00,0.0551
3060.00,0.0551
3059.00,0.0551
3058.00,0.0551
3057.00,0.0551
3056.00,0.0551
3055.00,0.0551
3054.00,0.0550
3053.00,0.0550
3052.00,0.0550
3051.00,0.0550
3050.00,0.0551
3049.00,0.0552
3048.00,0.0552
3047.00,0.0552
3046.00,0.0551
3045.00,0.0551
3044.00,0.0550
3043.00,0.0548
3042.00,0.0547
3041.00,0.0546
3040.00,0.0546
3039.00,0.0547
3038.00,0.0547
3037.00,0.0548
3036.00,0.0548
3035.00,0.0548
3034.00,0.0548
3033.00,0.0548
3032.00,0.0548
3031.00,0.0547
3030.00,0.0546
3029.00,0.0545
3028.00,0.0544
3027.00,0.0544
3026.00,0.0544
3025.00,0.0544
3024.00,0.0544
3023.00,0.0544
3022.00,0.0544
3021.00,0.0544
3020.00,0.0544
3019.00,0.0543
3018.00,0.0542
3017.00,0.0542
3016.00,0.0542
3015.00,0.0541
3014.00,0.0541
3013.00,0.0540
3012.00,0.0539
3011.00,0.0539
3010.00,0.0538
3009.00,0.0537
3008.00,0.0535
3007.00,0.0534
3006.00,0.0533
3005.00,0.0533
3004.00,0.0532
3003.00,0.0531
3002.00,0.0530
3001.00,0.0529
3000.00,0.0528
2999.00,0.0527
2998.00,0.0526
2997.00,0.0524
2996.00,0.0524
2995.00,0.0523
2994.00,0.0523
2993.00,0.0522
2992.00,0.0522
2991.00,0.0521
2990.00,0.0520
2989.00,0.0519
2988.00,0.0519
2987.00,0.0517
2986.00,0.0515
2985.00,0.0512
2984.00,0.0509
2983.00,0.0507
2982.00,0.0506
2981.00,0.0506
2980.00,0.0507
2979.00,0.0509
2978.00,0.0510
2977.00,0.0512
2976.00,0.0513
2975.00,0.0514
2974.00,0.0513
2973.00,0.0513
2972.00,0.0512
2971.00,0.0513
2970.00,0.0514
2969.00,0.0515
2968.00,0.0516
2967.00,0.0517
2966.00,0.0518
2965.00,0.0518
2964.00,0.0519
2963.00,0.0520
2962.00,0.0521
2961.00,0.0522
2960.00,0.0522
2959.00,0.0522
2958.00,0.0522
2957.00,0.0522
2956.00,0.0523
2955.00,0.0524
2954.00,0.0525
2953.00,0.0526
2952.00,0.0526
2951.00,0.0526
2950.00,0.0527
2949.00,0.0527
2948.00,0.0527
2947.00,0.0527
2946.00,0.0527
2945.00,0.0527
2944.00,0.0528
2943.00,0.0529
2942.00,0.0531
2941.00,0.0531
2940.00,0.0531
2939.00,0.0531
2938.00,0.0531
2937.00,0.0532
2936.00,0.0532
2935.00,0.0533
2934.00,0.0533
2933.00,0.0533
2932.00,0.0533
2931.00,0.0533
2930.00,0.0533
2929.00,0.0533
2928.00,0.0533
2927.00,0.0534
2926.00,0.0533
2925.00,0.0533
2924.00,0.0532
2923.00,0.0532
2922.00,0.0532
2921.00,0.0531
2920.00,0.0531
2919.00,0.0529
2918.00,0.0528
2917.00,0.0527
2916.00,0.0527
2915.00,0.0527
2914.00,0.0527
2913.00,0.0527
2912.00,0.0527
2911.00,0.0528
2910.00,0.0528
2909.00,0.0527
2908.00,0.0526
2907.00,0.0526
2906.00,0.0525
2905.00,0.0525
2904.00,0.0524
2903.00,0.0524
2902.00,0.0523
2901.00,0.0523
2900.00,0.0522
2899.00,0.0522
2898.00,0.0521
2897.00,0.0520
2896.00,0.0520
2895.00,0.0520
2894.00,0.0519
2893.00,0.0519
2892.00,0.0519
2891.00,0.0519
2890.00,0.0518
2889.00,0.0518
2888.00,0.0518
2887.00,0.0518
2886.00,0.0517
2885.00,0.0517
2884.00,0.0516
2883.00,0.0516
2882.00,0.0516
2881.00,0.0517
2880.00,0.0517
2879.00,0.0517
2878.00,0.0517
2877.00,0.0517
2876.00,0.0517
2875.00,0.0517
2874.00,0.0516
2873.00,0.0516
2872.00,0.0515
2871.00,0.0515
2870.00,0.0515
2869.00,0.0515
2868.00,0.0515
2867.00,0.0515
2866.00,0.0515
2865.00,0.0516
2864.00,0.0516
2863.00,0.0516
2862.00,0.0516
2861.00,0.0516
2860.00,0.0517
2859.00,0.0518
2858.00,0.0519
2857.00,0.0520
2856.00,0.0520
2855.00,0.0519
2854.00,0.0518
2853.00,0.0518
2852.00,0.0518
2851.00,0.0518
2850.00,0.0518
2849.00,0.0517
2848.00,0.0517
2847.00,0.0516
2846.00,0.0515
2845.00,0.0515
2844.00,0.0514
2843.00,0.0514
2842.00,0.0514
2841.00,0.0513
2840.00,0.0512
2839.00,0.0511
2838.00,0.0510
2837.00,0.0511
2836.00,0.0511
2835.00,0.0512
2834.00,0.0512
2833.00,0.0511
2832.00,0.0510
2831.00,0.0509
2830.00,0.0508
2829.00,0.0508
2828.00,0.0508
2827.00,0.0508
2826.00,0.0508
2825.00,0.0507
2824.00,0.0507
2823.00,0.0507
2822.00,0.0506
2821.00,0.0505
2820.00,0.0504
2819.00,0.0503
2818.00,0.0503
2817.00,0.0503
2816.00,0.0503
2815.00,0.0503
2814.00,0.0502
2813.00,0.0502
2812.00,0.0502
2811.00,0.0501
2810.00,0.0501
2809.00,0.0501
2808.00,0.0501
2807.00,0.0501
2806.00,0.0501
2805.00,0.0501
2804.00,0.0501
2803.00,0.0501
2802.00,0.0500
2801.00,0.0500
2800.00,0.0499
2799.00,0.0499
2798.00,0.0498
2797.00,0.0498
2796.00,0.0498
2795.00,0.0498
2794.00,0.0497
2793.00,0.0497
2792.00,0.0496
2791.00,0.0496
2790.00,0.0496
2789.00,0.0496
2788.00,0.0496
2787.00,0.0496
2786.00,0.0495
2785.00,0.0495
2784.00,0.0494
2783.00,0.0493
2782.00,0.0493
2781.00,0.0492
2780.00,0.0491
2779.00,0.0491
2778.00,0.0491
2777.00,0.0491
2776.00,0.0491
2775.00,0.0491
2774.00,0.0491
2773.00,0.0491
2772.00,0.0490
2771.00,0.0490
2770.00,0.0489
2769.00,0.0488
2768.00,0.0487
2767.00,0.0487
2766.00,0.0487
2765.00,0.0487
2764.00,0.0487
2763.00,0.0487
2762.00,0.0487
2761.00,0.0487
2760.00,0.0487
2759.00,0.0486
2758.00,0.0486
2757.00,0.0485
2756.00,0.0485
2755.00,0.0484
2754.00,0.0484
2753.00,0.0484
2752.00,0.0484
2751.00,0.0484
2750.00,0.0484
2749.00,0.0484
2748.00,0.0484
2747.00,0.0484
2746.00,0.0484
2745.00,0.0483
2744.00,0.0483
2743.00,0.0482
2742.00,0.0482
2741.00,0.0482
2740.00,0.0481
2739.00,0.0481
2738.00,0.0480
2737.00,0.0479
2736.00,0.0479
2735.00,0.0479
2734.00,0.0479
2733.00,0.0479
2732.00,0.0479
2731.00,0.0479
2730.00,0.0478
2729.00,0.0478
2728.00,0.0477
2727.00,0.0477
2726.00,0.0477
2725.00,0.0476
2724.00,0.0476
2723.00,0.0476
2722.00,0.0475
2721.00,0.0475
2720.00,0.0474
2719.00,0.0474
2718.00,0.0475
2717.00,0.0475
2716.00,0.0474
2715.00,0.0474
2714.00,0.0474
2713.00,0.0474
2712.00,0.0473
2711.00,0.0473
2710.00,0.0473
2709.00,0.0473
2708.00,0.0472
2707.00,0.0472
2706.00,0.0471
2705.00,0.0471
2704.00,0.0471
2703.00,0.0470
2702.00,0.0470
2701.00,0.0470
2700.00,0.0470
2699.00,0.0470
2698.00,0.0469
2697.00,0.0469
2696.00,0.0468
2695.00,0.0468
2694.00,0.0468
2693.00,0.0469
2692.00,0.0468
2691.00,0.0468
2690.00,0.0468
2689.00,0.0467
2688.00,0.0467
2687.00,0.0467
2686.00,0.0467
2685.00,0.0467
2684.00,0.0466
2683.00,0.0466
2682.00,0.0466
2681.00,0.0465
2680.00,0.0465
2679.00,0.0464
2678.00,0.0464
2677.00,0.0463
2676.00,0.0462
2675.00,0.0462
2674.00,0.0462
2673.00,0.0462
2672.00,0.0462
2671.00,0.0462
2670.00,0.0461
2669.00,0.0461
2668.00,0.0461
2667.00,0.0461
2666.00,0.0461
2665.00,0.0461
2664.00,0.0461
2663.00,0.0461
2662.00,0.0462
2661.00,0.0461
2660.00,0.0461
2659.00,0.0461
2658.00,0.0461
2657.00,0.0461
2656.00,0.0461
2655.00,0.0461
2654.00,0.0461
2653.00,0.0461
2652.00,0.0462
2651.00,0.0462
2650.00,0.0462
2649.00,0.0462
2648.00,0.0461
2647.00,0.0460
2646.00,0.0459
2645.00,0.0459
2644.00,0.0460
2643.00,0.0460
2642.00,0.0460
2641.00,0.0460
2640.00,0.0460
2639.00,0.0461
2638.00,0.0461
2637.00,0.0460
2636.00,0.0460
2635.00,0.0459
2634.00,0.0459
2633.00,0.0460
2632.00,0.0460
2631.00,0.0460
2630.00,0.0459
2629.00,0.0458
2628.00,0.0458
2627.00,0.0457
2626.00,0.0458
2625.00,0.0458
2624.00,0.0459
2623.00,0.0459
2622.00,0.0459
2621.00,0.0460
2620.00,0.0460
2619.00,0.0460
2618.00,0.0459
2617.00,0.0459
2616.00,0.0459
2615.00,0.0458
2614.00,0.0458
2613.00,0.0458
2612.00,0.0459
2611.00,0.0460
2610.00,0.0459
2609.00,0.0458
2608.00,0.0458
2607.00,0.0458
2606.00,0.0458
2605.00,0.0459
2604.00,0.0459
2603.00,0.0459
2602.00,0.0459
2601.00,0.0459
2600.00,0.0458
2599.00,0.0457
2598.00,0.0456
2597.00,0.0456
2596.00,0.0455
2595.00,0.0455
2594.00,0.0456
2593.00,0.0457
2592.00,0.0457
2591.00,0.0458
2590.00,0.0458
2589.00,0.0458
2588.00,0.0457
2587.00,0.0457
2586.00,0.0456
2585.00,0.0455
2584.00,0.0455
2583.00,0.0455
2582.00,0.0455
2581.00,0.0456
2580.00,0.0456
2579.00,0.0456
2578.00,0.0457
2577.00,0.0456
2576.00,0.0455
2575.00,0.0454
2574.00,0.0454
2573.00,0.0454
2572.00,0.0454
2571.00,0.0454
2570.00,0.0453
2569.00,0.0453
2568.00,0.0454
2567.00,0.0455
2566.00,0.0456
2565.00,0.0456
2564.00,0.0456
2563.00,0.0456
2562.00,0.0456
2561.00,0.0456
2560.00,0.0456
2559.00,0.0455
2558.00,0.0455
2557.00,0.0455
2556.00,0.0455
2555.00,0.0455
2554.00,0.0455
2553.00,0.0454
2552.00,0.0454
2551.00,0.0452
2550.00,0.0451
2549.00,0.0450
2548.00,0.0449
2547.00,0.0448
2546.00,0.0449
2545.00,0.0450
2544.00,0.0451
2543.00,0.0451
2542.00,0.0450
2541.00,0.0449
2540.00,0.0448
2539.00,0.0447
2538.00,0.0446
2537.00,0.0447
2536.00,0.0447
2535.00,0.0448
2534.00,0.0449
2533.00,0.0450
2532.00,0.0450
2531.00,0.0449
2530.00,0.0449
2529.00,0.0448
2528.00,0.0447
2527.00,0.0447
2526.00,0.0446
2525.00,0.0446
2524.00,0.0445
2523.00,0.0446
2522.00,0.0446
2521.00,0.0446
2520.00,0.0446
2519.00,0.0447
2518.00,0.0448
2517.00,0.0449
2516.00,0.0449
2515.00,0.0449
2514.00,0.0448
2513.00,0.0447
2512.00,0.0446
2511.00,0.0446
2510.00,0.0447
2509.00,0.0448
2508.00,0.0448
2507.00,0.0448
2506.00,0.0447
2505.00,0.0447
2504.00,0.0446
2503.00,0.0446
2502.00,0.0447
2501.00,0.0447
2500.00,0.0448
2499.00,0.0448
2498.00,0.0447
2497.00,0.0447
2496.00,0.0446
2495.00,0.0446
2494.00,0.0447
2493.00,0.0447
2492.00,0.0447
2491.00,0.0447
2490.00,0.0447
2489.00,0.0447
2488.00,0.0447
2487.00,0.0446
2486.00,0.0445
2485.00,0.0444
2484.00,0.0444
2483.00,0.0444
2482.00,0.0444
2481.00,0.0445
2480.00,0.0445
2479.00,0.0444
2478.00,0.0444
2477.00,0.0443
2476.00,0.0443
2475.00,0.0443
2474.00,0.0443
2473.00,0.0443
2472.00,0.0443
2471.00,0.0442
2470.00,0.0442
2469.00,0.0442
2468.00,0.0441
2467.00,0.0441
2466.00,0.0440
2465.00,0.0440
2464.00,0.0440
2463.00,0.0439
2462.00,0.0439
2461.00,0.0439
2460.00,0.0440
2459.00,0.0440
2458.00,0.0441
2457.00,0.0441
2456.00,0.0441
2455.00,0.0441
2454.00,0.0441
2453.00,0.0442
2452.00,0.0442
2451.00,0.0442
2450.00,0.0441
2449.00,0.0441
2448.00,0.0440
2447.00,0.0440
2446.00,0.0439
2445.00,0.0438
2444.00,0.0438
2443.00,0.0437
2442.00,0.0437
2441.00,0.0437
2440.00,0.0437
2439.00,0.0437
2438.00,0.0436
2437.00,0.0436
2436.00,0.0436
2435.00,0.0436
2434.00,0.0435
2433.00,0.0435
2432.00,0.0435
2431.00,0.0435
2430.00,0.0435
2429.00,0.0435
2428.00,0.0435
2427.00,0.0435
2426.00,0.0435
2425.00,0.0434
2424.00,0.0434
2423.00,0.0433
2422.00,0.0433
2421.00,0.0433
2420.00,0.0433
2419.00,0.0433
2418.00,0.0432
2417.00,0.0432
2416.00,0.0431
2415.00,0.0431
2414.00,0.0431
2413.00,0.0431
2412.00,0.0431
2411.00,0.0431
2410.00,0.0431
2409.00,0.0431
2408.00,0.0430
2407.00,0.0430
2406.00,0.0430
2405.00,0.0430
2404.00,0.0430
2403.00,0.0429
2402.00,0.0428
2401.00,0.0428
2400.00,0.0427
2399.00,0.0427
2398.00,0.0427
2397.00,0.0426
2396.00,0.0426
2395.00,0.0425
2394.00,0.0425
2393.00,0.0425
2392.00,0.0425
2391.00,0.0424
2390.00,0.0424
2389.00,0.0423
2388.00,0.0422
2387.00,0.0421
2386.00,0.0420
2385.00,0.0419
2384.00,0.0417
2383.00,0.0415
2382.00,0.0414
2381.00,0.0414
2380.00,0.0414
2379.00,0.0414
2378.00,0.0414
2377.00,0.0414
2376.00,0.0413
2375.00,0.0412
2374.00,0.0412
2373.00,0.0412
2372.00,0.0412
2371.00,0.0411
2370.00,0.0408
2369.00,0.0404
2368.00,0.0400
2367.00,0.0400
2366.00,0.0403
2365.00,0.0406
2364.00,0.0408
2363.00,0.0407
2362.00,0.0405
2361.00,0.0405
2360.00,0.0406
2359.00,0.0406
2358.00,0.0405
2357.00,0.0404
2356.00,0.0404
2355.00,0.0403
2354.00,0.0403
2353.00,0.0403
2352.00,0.0403
2351.00,0.0402
2350.00,0.0402
2349.00,0.0402
2348.00,0.0401
2347.00,0.0399
2346.00,0.0397
2345.00,0.0397
2344.00,0.0399
2343.00,0.0402
2342.00,0.0404
2341.00,0.0405
2340.00,0.0405
2339.00,0.0403
2338.00,0.0401
2337.00,0.0399
2336.00,0.0398
2335.00,0.0399
2334.00,0.0400
2333.00,0.0400
2332.00,0.0400
2331.00,0.0399
2330.00,0.0399
2329.00,0.0399
2328.00,0.0400
2327.00,0.0401
2326.00,0.0401
2325.00,0.0401
2324.00,0.0400
2323.00,0.0399
2322.00,0.0399
2321.00,0.0400
2320.00,0.0401
2319.00,0.0401
2318.00,0.0401
2317.00,0.0401
2316.00,0.0400
2315.00,0.0400
2314.00,0.0400
2313.00,0.0399
2312.00,0.0400
2311.00,0.0400
2310.00,0.0401
2309.00,0.0402
2308.00,0.0403
2307.00,0.0402
2306.00,0.0402
2305.00,0.0402
2304.00,0.0401
2303.00,0.0400
2302.00,0.0399
2301.00,0.0399
2300.00,0.0400
2299.00,0.0401
2298.00,0.0402
2297.00,0.0402
2296.00,0.0402
2295.00,0.0402
2294.00,0.0402
2293.00,0.0404
2292.00,0.0406
2291.00,0.0407
2290.00,0.0407
2289.00,0.0406
2288.00,0.0406
2287.00,0.0406
2286.00,0.0408
2285.00,0.0409
2284.00,0.0410
2283.00,0.0411
2282.00,0.0411
2281.00,0.0410
2280.00,0.0409
2279.00,0.0409
2278.00,0.0409
2277.00,0.0409
2276.00,0.0407
2275.00,0.0405
2274.00,0.0404
2273.00,0.0403
2272.00,0.0402
2271.00,0.0403
2270.00,0.0403
2269.00,0.0403
2268.00,0.0403
2267.00,0.0403
2266.00,0.0403
2265.00,0.0404
2264.00,0.0404
2263.00,0.0405
2262.00,0.0405
2261.00,0.0404
2260.00,0.0404
2259.00,0.0403
2258.00,0.0402
2257.00,0.0400
2256.00,0.0398
2255.00,0.0398
2254.00,0.0398
2253.00,0.0399
2252.00,0.0399
2251.00,0.0399
2250.00,0.0399
2249.00,0.0399
2248.00,0.0398
2247.00,0.0399
2246.00,0.0400
2245.00,0.0402
2244.00,0.0402
2243.00,0.0402
2242.00,0.0401
2241.00,0.0400
2240.00,0.0399
2239.00,0.0397
2238.00,0.0396
2237.00,0.0397
2236.00,0.0397
2235.00,0.0398
2234.00,0.0399
2233.00,0.0400
2232.00,0.0399
2231.00,0.0398
2230.00,0.0396
2229.00,0.0396
2228.00,0.0397
2227.00,0.0397
2226.00,0.0397
2225.00,0.0396
2224.00,0.0395
2223.00,0.0393
2222.00,0.0393
2221.00,0.0392
2220.00,0.0392
2219.00,0.0392
2218.00,0.0392
2217.00,0.0392
2216.00,0.0393
2215.00,0.0394
2214.00,0.0395
2213.00,0.0395
2212.00,0.0393
2211.00,0.0390
2210.00,0.0388
2209.00,0.0388
2208.00,0.0389
2207.00,0.0390
2206.00,0.0391
2205.00,0.0391
2204.00,0.0390
2203.00,0.0389
2202.00,0.0388
2201.00,0.0388
2200.00,0.0387
2199.00,0.0386
2198.00,0.0387
2197.00,0.0387
2196.00,0.0388
2195.00,0.0389
2194.00,0.0390
2193.00,0.0391
2192.00,0.0390
2191.00,0.0387
2190.00,0.0384
2189.00,0.0381
2188.00,0.0382
2187.00,0.0385
2186.00,0.0389
2185.00,0.0391
2184.00,0.0389
2183.00,0.0386
2182.00,0.0384
2181.00,0.0384
2180.00,0.0386
2179.00,0.0387
2178.00,0.0388
2177.00,0.0388
2176.00,0.0388
2175.00,0.0387
2174.00,0.0386
2173.00,0.0385
2172.00,0.0385
2171.00,0.0386
2170.00,0.0388
2169.00,0.0390
2168.00,0.0391
2167.00,0.0391
2166.00,0.0391
2165.00,0.0391
2164.00,0.0391
2163.00,0.0391
2162.00,0.0391
2161.00,0.0390
2160.00,0.0386
2159.00,0.0380
2158.00,0.0376
2157.00,0.0375
2156.00,0.0375
2155.00,0.0375
2154.00,0.0376
2153.00,0.0377
2152.00,0.0376
2151.00,0.0374
2150.00,0.0371
2149.00,0.0370
2148.00,0.0371
2147.00,0.0374
2146.00,0.0378
2145.00,0.0380
2144.00,0.0381
2143.00,0.0380
2142.00,0.0380
2141.00,0.0379
2140.00,0.0377
2139.00,0.0375
2138.00,0.0373
2137.00,0.0372
2136.00,0.0370
2135.00,0.0370
2134.00,0.0370
2133.00,0.0371
2132.00,0.0371
2131.00,0.0371
2130.00,0.0371
2129.00,0.0371
2128.00,0.0372
2127.00,0.0372
2126.00,0.0372
2125.00,0.0371
2124.00,0.0370
2123.00,0.0369
2122.00,0.0368
2121.00,0.0368
2120.00,0.0367
2119.00,0.0367
2118.00,0.0366
2117.00,0.0365
2116.00,0.0364
2115.00,0.0363
2114.00,0.0361
2113.00,0.0361
2112.00,0.0362
2111.00,0.0364
2110.00,0.0366
2109.00,0.0367
2108.00,0.0368
2107.00,0.0369
2106.00,0.0369
2105.00,0.0368
2104.00,0.0367
2103.00,0.0366
2102.00,0.0365
2101.00,0.0365
2100.00,0.0364
2099.00,0.0361
2098.00,0.0359
2097.00,0.0358
2096.00,0.0359
2095.00,0.0359
2094.00,0.0361
2093.00,0.0361
2092.00,0.0361
2091.00,0.0359
2090.00,0.0358
2089.00,0.0358
2088.00,0.0358
2087.00,0.0359
2086.00,0.0360
2085.00,0.0361
2084.00,0.0362
2083.00,0.0362
2082.00,0.0361
2081.00,0.0361
2080.00,0.0361
2079.00,0.0361
2078.00,0.0361
2077.00,0.0360
2076.00,0.0360
2075.00,0.0360
2074.00,0.0359
2073.00,0.0359
2072.00,0.0359
2071.00,0.0360
2070.00,0.0361
2069.00,0.0360
2068.00,0.0357
2067.00,0.0355
2066.00,0.0354
2065.00,0.0355
2064.00,0.0356
2063.00,0.0357
2062.00,0.0359
2061.00,0.0359
2060.00,0.0357
2059.00,0.0355
2058.00,0.0354
2057.00,0.0354
2056.00,0.0355
2055.00,0.0354
2054.00,0.0354
2053.00,0.0355
2052.00,0.0356
2051.00,0.0356
2050.00,0.0354
2049.00,0.0353
2048.00,0.0352
2047.00,0.0353
2046.00,0.0354
2045.00,0.0357
2044.00,0.0359
2043.00,0.0359
2042.00,0.0358
2041.00,0.0355
2040.00,0.0353
2039.00,0.0351
2038.00,0.0352
2037.00,0.0356
2036.00,0.0358
2035.00,0.0358
2034.00,0.0356
2033.00,0.0354
2032.00,0.0356
2031.00,0.0358
2030.00,0.0359
2029.00,0.0357
2028.00,0.0355
2027.00,0.0353
2026.00,0.0351
2025.00,0.0349
2024.00,0.0346
2023.00,0.0344
2022.00,0.0342
2021.00,0.0342
2020.00,0.0341
2019.00,0.0340
2018.00,0.0339
2017.00,0.0337
2016.00,0.0336
2015.00,0.0337
2014.00,0.0339
2013.00,0.0341
2012.00,0.0343
2011.00,0.0345
2010.00,0.0346
2009.00,0.0346
2008.00,0.0345
2007.00,0.0343
2006.00,0.0341
2005.00,0.0339
2004.00,0.0339
2003.00,0.0340
2002.00,0.0343
2001.00,0.0346
2000.00,0.0346
1999.00,0.0344
1998.00,0.0343
1997.00,0.0343
1996.00,0.0346
1995.00,0.0348
1994.00,0.0349
1993.00,0.0348
1992.00,0.0345
1991.00,0.0341
1990.00,0.0338
1989.00,0.0336
1988.00,0.0335
1987.00,0.0336
1986.00,0.0337
1985.00,0.0339
1984.00,0.0340
1983.00,0.0341
1982.00,0.0341
1981.00,0.0339
1980.00,0.0336
1979.00,0.0332
1978.00,0.0329
1977.00,0.0327
1976.00,0.0328
1975.00,0.0330
1974.00,0.0334
1973.00,0.0336
1972.00,0.0334
1971.00,0.0331
1970.00,0.0330
1969.00,0.0331
1968.00,0.0333
1967.00,0.0332
1966.00,0.0328
1965.00,0.0326
1964.00,0.0327
1963.00,0.0328
1962.00,0.0329
1961.00,0.0329
1960.00,0.0329
1959.00,0.0329
1958.00,0.0327
1957.00,0.0325
1956.00,0.0323
1955.00,0.0322
1954.00,0.0323
1953.00,0.0325
1952.00,0.0326
1951.00,0.0324
1950.00,0.0322
1949.00,0.0321
1948.00,0.0321
1947.00,0.0321
1946.00,0.0321
1945.00,0.0318
1944.00,0.0315
1943.00,0.0313
1942.00,0.0312
1941.00,0.0313
1940.00,0.0313
1939.00,0.0313
1938.00,0.0312
1937.00,0.0311
1936.00,0.0311
1935.00,0.0310
1934.00,0.0309
1933.00,0.0309
1932.00,0.0309
1931.00,0.0311
1930.00,0.0312
1929.00,0.0314
1928.00,0.0315
1927.00,0.0315
1926.00,0.0315
1925.00,0.0315
1924.00,0.0314
1923.00,0.0312
1922.00,0.0311
1921.00,0.0310
1920.00,0.0310
1919.00,0.0308
1918.00,0.0306
1917.00,0.0304
1916.00,0.0305
1915.00,0.0305
1914.00,0.0306
1913.00,0.0305
1912.00,0.0304
1911.00,0.0303
1910.00,0.0301
1909.00,0.0300
1908.00,0.0299
1907.00,0.0299
1906.00,0.0299
1905.00,0.0299
1904.00,0.0299
1903.00,0.0299
1902.00,0.0298
1901.00,0.0298
1900.00,0.0298
1899.00,0.0298
1898.00,0.0298
1897.00,0.0298
1896.00,0.0296
1895.00,0.0293
1894.00,0.0292
1893.00,0.0293
1892.00,0.0294
1891.00,0.0295
1890.00,0.0294
1889.00,0.0292
1888.00,0.0291
1887.00,0.0290
1886.00,0.0290
1885.00,0.0290
1884.00,0.0290
1883.00,0.0289
1882.00,0.0288
1881.00,0.0288
1880.00,0.0287
1879.00,0.0287
1878.00,0.0286
1877.00,0.0285
1876.00,0.0285
1875.00,0.0286
1874.00,0.0286
1873.00,0.0287
1872.00,0.0288
1871.00,0.0288
1870.00,0.0287
1869.00,0.0284
1868.00,0.0281
1867.00,0.0279
1866.00,0.0279
1865.00,0.0280
1864.00,0.0280
1863.00,0.0279
1862.00,0.0277
1861.00,0.0276
1860.00,0.0275
1859.00,0.0275
1858.00,0.0275
1857.00,0.0276
1856.00,0.0276
1855.00,0.0276
1854.00,0.0276
1853.00,0.0275
1852.00,0.0274
1851.00,0.0274
1850.00,0.0275
1849.00,0.0274
1848.00,0.0274
1847.00,0.0274
1846.00,0.0275
1845.00,0.0274
1844.00,0.0270
1843.00,0.0267
1842.00,0.0267
1841.00,0.0268
1840.00,0.0269
1839.00,0.0269
1838.00,0.0268
1837.00,0.0268
1836.00,0.0267
1835.00,0.0267
1834.00,0.0267
1833.00,0.0268
1832.00,0.0269
1831.00,0.0268
1830.00,0.0265
1829.00,0.0262
1828.00,0.0261
1827.00,0.0262
1826.00,0.0262
1825.00,0.0261
1824.00,0.0259
1823.00,0.0258
1822.00,0.0259
1821.00,0.0259
1820.00,0.0259
1819.00,0.0258
1818.00,0.0257
1817.00,0.0256
1816.00,0.0255
1815.00,0.0255
1814.00,0.0255
1813.00,0.0255
1812.00,0.0255
1811.00,0.0254
1810.00,0.0252
1809.00,0.0253
1808.00,0.0253
1807.00,0.0254
1806.00,0.0254
1805.00,0.0255
1804.00,0.0255
1803.00,0.0256
1802.00,0.0255
1801.00,0.0255
1800.00,0.0254
1799.00,0.0253
1798.00,0.0254
1797.00,0.0256
1796.00,0.0258
1795.00,0.0260
1794.00,0.0261
1793.00,0.0261
1792.00,0.0260
1791.00,0.0258
1790.00,0.0259
1789.00,0.0262
1788.00,0.0265
1787.00,0.0267
1786.00,0.0269
1785.00,0.0271
1784.00,0.0272
1783.00,0.0273
1782.00,0.0275
1781.00,0.0276
1780.00,0.0277
1779.00,0.0279
1778.00,0.0282
1777.00,0.0286
1776.00,0.0289
1775.00,0.0292
1774.00,0.0295
1773.00,0.0295
1772.00,0.0294
1771.00,0.0294
1770.00,0.0298
1769.00,0.0302
1768.00,0.0306
1767.00,0.0307
1766.00,0.0310
1765.00,0.0313
1764.00,0.0317
1763.00,0.0320
1762.00,0.0320
1761.00,0.0321
1760.00,0.0324
1759.00,0.0327
1758.00,0.0330
1757.00,0.0332
1756.00,0.0334
1755.00,0.0338
1754.00,0.0344
1753.00,0.0348
1752.00,0.0351
1751.00,0.0353
1750.00,0.0355
1749.00,0.0357
1748.00,0.0361
1747.00,0.0364
1746.00,0.0369
1745.00,0.0373
1744.00,0.0378
1743.00,0.0382
1742.00,0.0385
1741.00,0.0388
1740.00,0.0392
1739.00,0.0394
1738.00,0.0398
1737.00,0.0403
1736.00,0.0408
1735.00,0.0413
1734.00,0.0415
1733.00,0.0415
1732.00,0.0418
1731.00,0.0421
1730.00,0.0424
1729.00,0.0427
1728.00,0.0430
1727.00,0.0433
1726.00,0.0436
1725.00,0.0439
1724.00,0.0442
1723.00,0.0444
1722.00,0.0445
1721.00,0.0446
1720.00,0.0447
1719.00,0.0447
1718.00,0.0449
1717.00,0.0450
1716.00,0.0451
1715.00,0.0451
1714.00,0.0452
1713.00,0.0454
1712.00,0.0456
1711.00,0.0456
1710.00,0.0457
1709.00,0.0457
1708.00,0.0456
1707.00,0.0455
1706.00,0.0453
1705.00,0.0451
1704.00,0.0452
1703.00,0.0454
1702.00,0.0455
1701.00,0.0454
1700.00,0.0450
1699.00,0.0448
1698.00,0.0450
1697.00,0.0453
1696.00,0.0451
1695.00,0.0447
1694.00,0.0446
1693.00,0.0448
1692.00,0.0450
1691.00,0.0450
1690.00,0.0449
1689.00,0.0449
1688.00,0.0450
1687.00,0.0450
1686.00,0.0448
1685.00,0.0447
1684.00,0.0445
1683.00,0.0443
1682.00,0.0446
1681.00,0.0450
1680.00,0.0451
1679.00,0.0453
1678.00,0.0455
1677.00,0.0458
1676.00,0.0460
1675.00,0.0461
1674.00,0.0461
1673.00,0.0462
1672.00,0.0463
1671.00,0.0465
1670.00,0.0466
1669.00,0.0468
1668.00,0.0470
1667.00,0.0473
1666.00,0.0476
1665.00,0.0479
1664.00,0.0481
1663.00,0.0482
1662.00,0.0485
1661.00,0.0488
1660.00,0.0493
1659.00,0.0497
1658.00,0.0501
1657.00,0.0503
1656.00,0.0503
1655.00,0.0503
1654.00,0.0506
1653.00,0.0509
1652.00,0.0509
1651.00,0.0514
1650.00,0.0519
1649.00,0.0522
1648.00,0.0525
1647.00,0.0530
1646.00,0.0534
1645.00,0.0538
1644.00,0.0543
1643.00,0.0547
1642.00,0.0550
1641.00,0.0553
1640.00,0.0555
1639.00,0.0557
1638.00,0.0559
1637.00,0.0563
1636.00,0.0570
1635.00,0.0575
1634.00,0.0579
1633.00,0.0583
1632.00,0.0586
1631.00,0.0589
1630.00,0.0592
1629.00,0.0596
1628.00,0.0600
1627.00,0.0604
1626.00,0.0608
1625.00,0.0613
1624.00,0.0618
1623.00,0.0623
1622.00,0.0627
1621.00,0.0630
1620.00,0.0633
1619.00,0.0636
1618.00,0.0639
1617.00,0.0644
1616.00,0.0649
1615.00,0.0653
1614.00,0.0656
1613.00,0.0659
1612.00,0.0661
1611.00,0.0665
1610.00,0.0668
1609.00,0.0671
1608.00,0.0674
1607.00,0.0677
1606.00,0.0681
1605.00,0.0684
1604.00,0.0688
1603.00,0.0691
1602.00,0.0693
1601.00,0.0695
1600.00,0.0698
1599.00,0.0701
1598.00,0.0704
1597.00,0.0707
1596.00,0.0710
1595.00,0.0713
1594.00,0.0716
1593.00,0.0719
1592.00,0.0721
1591.00,0.0723
1590.00,0.0725
1589.00,0.0727
1588.00,0.0730
1587.00,0.0733
1586.00,0.0736
1585.00,0.0738
1584.00,0.0739
1583.00,0.0741
1582.00,0.0742
1581.00,0.0742
1580.00,0.0742
1579.00,0.0743
1578.00,0.0745
1577.00,0.0748
1576.00,0.0751
1575.00,0.0752
1574.00,0.0751
1573.00,0.0749
1572.00,0.0748
1571.00,0.0747
1570.00,0.0749
1569.00,0.0750
1568.00,0.0750
1567.00,0.0750
1566.00,0.0749
1565.00,0.0747
1564.00,0.0745
1563.00,0.0743
1562.00,0.0739
1561.00,0.0732
1560.00,0.0731
1559.00,0.0741
1558.00,0.0741
1557.00,0.0740
1556.00,0.0740
1555.00,0.0740
1554.00,0.0739
1553.00,0.0737
1552.00,0.0735
1551.00,0.0733
1550.00,0.0730
1549.00,0.0727
1548.00,0.0724
1547.00,0.0721
1546.00,0.0718
1545.00,0.0715
1544.00,0.0713
1543.00,0.0709
1542.00,0.0706
1541.00,0.0704
1540.00,0.0703
1539.00,0.0699
1538.00,0.0698
1537.00,0.0697
1536.00,0.0694
1535.00,0.0690
1534.00,0.0687
1533.00,0.0684
1532.00,0.0682
1531.00,0.0679
1530.00,0.0677
1529.00,0.0674
1528.00,0.0671
1527.00,0.0668
1526.00,0.0664
1525.00,0.0660
1524.00,0.0656
1523.00,0.0653
1522.00,0.0651
1521.00,0.0650
1520.00,0.0648
1519.00,0.0646
1518.00,0.0643
1517.00,0.0640
1516.00,0.0637
1515.00,0.0636
1514.00,0.0634
1513.00,0.0632
1512.00,0.0629
1511.00,0.0625
1510.00,0.0620
1509.00,0.0616
1508.00,0.0615
1507.00,0.0615
1506.00,0.0611
1505.00,0.0608
1504.00,0.0608
1503.00,0.0607
1502.00,0.0603
1501.00,0.0600
1500.00,0.0597
1499.00,0.0595
1498.00,0.0594
1497.00,0.0595
1496.00,0.0594
1495.00,0.0593
1494.00,0.0590
1493.00,0.0588
1492.00,0.0585
1491.00,0.0584
1490.00,0.0583
1489.00,0.0583
1488.00,0.0582
1487.00,0.0581
1486.00,0.0580
1485.00,0.0579
1484.00,0.0578
1483.00,0.0577
1482.00,0.0577
1481.00,0.0577
1480.00,0.0576
1479.00,0.0576
1478.00,0.0575
1477.00,0.0575
1476.00,0.0575
1475.00,0.0576
1474.00,0.0577
1473.00,0.0579
1472.00,0.0581
1471.00,0.0582
1470.00,0.0584
1469.00,0.0586
1468.00,0.0586
1467.00,0.0586
1466.00,0.0586
1465.00,0.0587
1464.00,0.0588
1463.00,0.0588
1462.00,0.0588
1461.00,0.0587
1460.00,0.0586
1459.00,0.0586
1458.00,0.0590
1457.00,0.0595
1456.00,0.0596
1455.00,0.0597
1454.00,0.0598
1453.00,0.0599
1452.00,0.0600
1451.00,0.0601
1450.00,0.0603
1449.00,0.0605
1448.00,0.0608
1447.00,0.0610
1446.00,0.0611
1445.00,0.0612
1444.00,0.0613
1443.00,0.0614
1442.00,0.0615
1441.00,0.0616
1440.00,0.0617
1439.00,0.0619
1438.00,0.0621
1437.00,0.0625
1436.00,0.0628
1435.00,0.0630
1434.00,0.0630
1433.00,0.0630
1432.00,0.0630
1431.00,0.0631
1430.00,0.0631
1429.00,0.0632
1428.00,0.0633
1427.00,0.0634
1426.00,0.0635
1425.00,0.0636
1424.00,0.0638
1423.00,0.0639
1422.00,0.0640
1421.00,0.0640
1420.00,0.0643
1419.00,0.0646
1418.00,0.0648
1417.00,0.0649
1416.00,0.0650
1415.00,0.0650
1414.00,0.0649
1413.00,0.0648
1412.00,0.0648
1411.00,0.0649
1410.00,0.0649
1409.00,0.0650
1408.00,0.0650
1407.00,0.0651
1406.00,0.0651
1405.00,0.0651
1404.00,0.0652
1403.00,0.0653
1402.00,0.0652
1401.00,0.0652
1400.00,0.0652
1399.00,0.0653
1398.00,0.0654
1397.00,0.0655
1396.00,0.0657
1395.00,0.0658
1394.00,0.0659
1393.00,0.0659
1392.00,0.0660
1391.00,0.0661
1390.00,0.0661
1389.00,0.0662
1388.00,0.0664
1387.00,0.0666
1386.00,0.0666
1385.00,0.0667
1384.00,0.0667
1383.00,0.0668
1382.00,0.0669
1381.00,0.0671
1380.00,0.0673
1379.00,0.0674
1378.00,0.0675
1377.00,0.0676
1376.00,0.0677
1375.00,0.0678
1374.00,0.0680
1373.00,0.0682
1372.00,0.0683
1371.00,0.0683
1370.00,0.0684
1369.00,0.0685
1368.00,0.0685
1367.00,0.0685
1366.00,0.0685
1365.00,0.0684
1364.00,0.0684
1363.00,0.0686
1362.00,0.0688
1361.00,0.0690
1360.00,0.0690
1359.00,0.0690
1358.00,0.0690
1357.00,0.0691
1356.00,0.0691
1355.00,0.0692
1354.00,0.0692
1353.00,0.0692
1352.00,0.0691
1351.00,0.0690
1350.00,0.0689
1349.00,0.0689
1348.00,0.0689
1347.00,0.0689
1346.00,0.0690
1345.00,0.0690
1344.00,0.0689
1343.00,0.0689
1342.00,0.0689
1341.00,0.0690
1340.00,0.0692
1339.00,0.0693
1338.00,0.0693
1337.00,0.0692
1336.00,0.0692
1335.00,0.0691
1334.00,0.0691
1333.00,0.0690
1332.00,0.0690
1331.00,0.0689
1330.00,0.0689
1329.00,0.0688
1328.00,0.0688
1327.00,0.0688
1326.00,0.0688
1325.00,0.0687
1324.00,0.0688
1323.00,0.0688
1322.00,0.0688
1321.00,0.0689
1320.00,0.0689
1319.00,0.0689
1318.00,0.0688
1317.00,0.0686
1316.00,0.0685
1315.00,0.0685
1314.00,0.0686
1313.00,0.0687
1312.00,0.0688
1311.00,0.0689
1310.00,0.0689
1309.00,0.0689
1308.00,0.0688
1307.00,0.0688
1306.00,0.0687
1305.00,0.0687
1304.00,0.0688
1303.00,0.0689
1302.00,0.0690
1301.00,0.0691
1300.00,0.0691
1299.00,0.0690
1298.00,0.0690
1297.00,0.0689
1296.00,0.0689
1295.00,0.0689
1294.00,0.0691
1293.00,0.0692
1292.00,0.0693
1291.00,0.0694
1290.00,0.0695
1289.00,0.0695
1288.00,0.0696
1287.00,0.0697
1286.00,0.0697
1285.00,0.0698
1284.00,0.0699
1283.00,0.0700
1282.00,0.0701
1281.00,0.0702
1280.00,0.0702
1279.00,0.0702
1278.00,0.0702
1277.00,0.0702
1276.00,0.0702
1275.00,0.0703
1274.00,0.0703
1273.00,0.0704
1272.00,0.0705
1271.00,0.0706
1270.00,0.0707
1269.00,0.0708
1268.00,0.0709
1267.00,0.0710
1266.00,0.0712
1265.00,0.0713
1264.00,0.0713
1263.00,0.0713
1262.00,0.0713
1261.00,0.0714
1260.00,0.0715
1259.00,0.0716
1258.00,0.0717
1257.00,0.0717
1256.00,0.0716
1255.00,0.0716
1254.00,0.0717
1253.00,0.0718
1252.00,0.0719
1251.00,0.0719
1250.00,0.0718
1249.00,0.0718
1248.00,0.0718
1247.00,0.0719
1246.00,0.0721
1245.00,0.0721
1244.00,0.0722
1243.00,0.0722
1242.00,0.0722
1241.00,0.0721
1240.00,0.0720
1239.00,0.0720
1238.00,0.0721
1237.00,0.0722
1236.00,0.0722
1235.00,0.0722
1234.00,0.0721
1233.00,0.0720
1232.00,0.0720
1231.00,0.0719
1230.00,0.0718
1229.00,0.0717
1228.00,0.0717
1227.00,0.0717
1226.00,0.0716
1225.00,0.0715
1224.00,0.0714
1223.00,0.0713
1222.00,0.0713
1221.00,0.0712
1220.00,0.0711
1219.00,0.0710
1218.00,0.0709
1217.00,0.0709
1216.00,0.0708
1215.00,0.0708
1214.00,0.0706
1213.00,0.0705
1212.00,0.0705
1211.00,0.0705
1210.00,0.0705
1209.00,0.0704
1208.00,0.0703
1207.00,0.0701
1206.00,0.0699
1205.00,0.0698
1204.00,0.0697
1203.00,0.0697
1202.00,0.0696
1201.00,0.0695
1200.00,0.0694
1199.00,0.0693
1198.00,0.0692
1197.00,0.0690
1196.00,0.0689
1195.00,0.0687
1194.00,0.0686
1193.00,0.0685
1192.00,0.0684
1191.00,0.0684
1190.00,0.0682
1189.00,0.0680
1188.00,0.0679
1187.00,0.0678
1186.00,0.0678
1185.00,0.0678
1184.00,0.0676
1183.00,0.0675
1182.00,0.0672
1181.00,0.0670
1180.00,0.0669
1179.00,0.0668
1178.00,0.0667
1177.00,0.0667
1176.00,0.0667
1175.00,0.0667
1174.00,0.0667
1173.00,0.0667
1172.00,0.0666
1171.00,0.0665
1170.00,0.0664
1169.00,0.0663
1168.00,0.0662
1167.00,0.0662
1166.00,0.0662
1165.00,0.0661
1164.00,0.0660
1163.00,0.0659
1162.00,0.0658
1161.00,0.0657
1160.00,0.0657
1159.00,0.0657
1158.00,0.0656
1157.00,0.0655
1156.00,0.0656
1155.00,0.0656
1154.00,0.0656
1153.00,0.0655
1152.00,0.0653
1151.00,0.0651
1150.00,0.0650
1149.00,0.0648
1148.00,0.0648
1147.00,0.0647
1146.00,0.0647
1145.00,0.0648
1144.00,0.0648
1143.00,0.0649
1142.00,0.0649
1141.00,0.0648
1140.00,0.0647
1139.00,0.0645
1138.00,0.0644
1137.00,0.0644
1136.00,0.0644
1135.00,0.0644
1134.00,0.0644
1133.00,0.0643
1132.00,0.0642
1131.00,0.0641
1130.00,0.0641
1129.00,0.0641
1128.00,0.0641
1127.00,0.0639
1126.00,0.0636
1125.00,0.0633
1124.00,0.0632
1123.00,0.0634
1122.00,0.0636
1121.00,0.0639
1120.00,0.0640
1119.00,0.0640
1118.00,0.0638
1117.00,0.0637
1116.00,0.0637
1115.00,0.0638
1114.00,0.0639
1113.00,0.0638
1112.00,0.0637
1111.00,0.0635
1110.00,0.0634
1109.00,0.0634
1108.00,0.0634
1107.00,0.0632
1106.00,0.0630
1105.00,0.0629
1104.00,0.0629
1103.00,0.0630
1102.00,0.0631
1101.00,0.0632
1100.00,0.0632
1099.00,0.0631
1098.00,0.0630
1097.00,0.0629
1096.00,0.0628
1095.00,0.0627
1094.00,0.0627
1093.00,0.0627
1092.00,0.0629
1091.00,0.0630
1090.00,0.0629
1089.00,0.0627
1088.00,0.0625
1087.00,0.0625
1086.00,0.0626
1085.00,0.0627
1084.00,0.0628
1083.00,0.0630
1082.00,0.0631
1081.00,0.0632
1080.00,0.0633
1079.00,0.0635
1078.00,0.0637
1077.00,0.0639
1076.00,0.0639
1075.00,0.0637
1074.00,0.0634
1073.00,0.0632
1072.00,0.0631
1071.00,0.0631
1070.00,0.0629
1069.00,0.0628
1068.00,0.0627
1067.00,0.0628
1066.00,0.0630
1065.00,0.0633
1064.00,0.0636
1063.00,0.0637
1062.00,0.0637
1061.00,0.0635
1060.00,0.0633
1059.00,0.0632
1058.00,0.0633
1057.00,0.0635
1056.00,0.0637
1055.00,0.0637
1054.00,0.0637
1053.00,0.0638
1052.00,0.0639
1051.00,0.0640
1050.00,0.0641
1049.00,0.0643
1048.00,0.0644
1047.00,0.0645
1046.00,0.0644
1045.00,0.0644
1044.00,0.0645
1043.00,0.0645
1042.00,0.0643
1041.00,0.0641
1040.00,0.0639
1039.00,0.0640
1038.00,0.0640
1037.00,0.0641
1036.00,0.0641
1035.00,0.0640
1034.00,0.0639
1033.00,0.0638
1032.00,0.0638
1031.00,0.0639
1030.00,0.0638
1029.00,0.0637
1028.00,0.0635
1027.00,0.0634
1026.00,0.0634
1025.00,0.0635
1024.00,0.0635
1023.00,0.0634
1022.00,0.0632
1021.00,0.0629
1020.00,0.0627
1019.00,0.0625
1018.00,0.0624
1017.00,0.0624
1016.00,0.0625
1015.00,0.0626
1014.00,0.0626
1013.00,0.0626
1012.00,0.0625
1011.00,0.0625
1010.00,0.0624
1009.00,0.0623
1008.00,0.0622
1007.00,0.0620
1006.00,0.0618
1005.00,0.0618
1004.00,0.0618
1003.00,0.0618
1002.00,0.0617
1001.00,0.0615
1000.00,0.0613
999.00,0.0610
998.00,0.0608
997.00,0.0607
996.00,0.0608
995.00,0.0609
994.00,0.0609
993.00,0.0607
992.00,0.0604
991.00,0.0603
990.00,0.0602
989.00,0.0601
988.00,0.0601
987.00,0.0602
986.00,0.0602
985.00,0.0603
984.00,0.0601
983.00,0.0598
982.00,0.0596
981.00,0.0595
980.00,0.0595
979.00,0.0595
978.00,0.0594
977.00,0.0592
976.00,0.0590
975.00,0.0588
974.00,0.0588
973.00,0.0588
972.00,0.0588
971.00,0.0587
970.00,0.0585
969.00,0.0583
968.00,0.0581
967.00,0.0580
966.00,0.0579
965.00,0.0577
964.00,0.0576
963.00,0.0576
962.00,0.0576
961.00,0.0576
960.00,0.0575
959.00,0.0574
958.00,0.0574
957.00,0.0573
956.00,0.0573
955.00,0.0571
954.00,0.0569
953.00,0.0568
952.00,0.0568
951.00,0.0570
950.00,0.0571
949.00,0.0572
948.00,0.0572
947.00,0.0571
946.00,0.0569
945.00,0.0569
944.00,0.0569
943.00,0.0568
942.00,0.0567
941.00,0.0566
940.00,0.0567
939.00,0.0569
938.00,0.0572
937.00,0.0572
936.00,0.0572
935.00,0.0570
934.00,0.0570
933.00,0.0572
932.00,0.0575
931.00,0.0578
930.00,0.0580
929.00,0.0581
928.00,0.0581
927.00,0.0582
926.00,0.0583
925.00,0.0584
924.00,0.0586
923.00,0.0587
922.00,0.0587
921.00,0.0587
920.00,0.0587
919.00,0.0587
918.00,0.0587
917.00,0.0588
916.00,0.0589
915.00,0.0590
914.00,0.0590
913.00,0.0590
912.00,0.0589
911.00,0.0588
910.00,0.0587
909.00,0.0585
908.00,0.0583
907.00,0.0583
906.00,0.0585
905.00,0.0587
904.00,0.0591
903.00,0.0594
902.00,0.0595
901.00,0.0595
900.00,0.0593
899.00,0.0593
898.00,0.0594
897.00,0.0597
896.00,0.0598
895.00,0.0597
894.00,0.0596
893.00,0.0594
892.00,0.0592
891.00,0.0592
890.00,0.0592
889.00,0.0593
888.00,0.0593
887.00,0.0591
886.00,0.0589
885.00,0.0587
884.00,0.0587
883.00,0.0588
882.00,0.0589
881.00,0.0588
880.00,0.0587
879.00,0.0586
878.00,0.0584
877.00,0.0582
876.00,0.0581
875.00,0.0581
874.00,0.0582
873.00,0.0582
872.00,0.0582
871.00,0.0583
870.00,0.0584
869.00,0.0584
868.00,0.0582
867.00,0.0579
866.00,0.0578
865.00,0.0579
864.00,0.0583
863.00,0.0587
862.00,0.0589
861.00,0.0590
860.00,0.0589
859.00,0.0587
858.00,0.0585
857.00,0.0584
856.00,0.0584
855.00,0.0587
854.00,0.0590
853.00,0.0592
852.00,0.0593
851.00,0.0594
850.00,0.0596
849.00,0.0597
848.00,0.0599
847.00,0.0602
846.00,0.0606
845.00,0.0610
844.00,0.0613
843.00,0.0614
842.00,0.0614
841.00,0.0612
840.00,0.0610
839.00,0.0608
838.00,0.0608
837.00,0.0609
836.00,0.0611
835.00,0.0613
834.00,0.0614
833.00,0.0613
832.00,0.0613
831.00,0.0613
830.00,0.0613
829.00,0.0615
828.00,0.0617
827.00,0.0619
826.00,0.0621
825.00,0.0623
824.00,0.0626
823.00,0.0629
822.00,0.0631
821.00,0.0633
820.00,0.0634
819.00,0.0636
818.00,0.0635
817.00,0.0633
816.00,0.0630
815.00,0.0629
814.00,0.0630
813.00,0.0632
812.00,0.0634
811.00,0.0635
810.00,0.0635
809.00,0.0636
808.00,0.0636
807.00,0.0636
806.00,0.0634
805.00,0.0632
804.00,0.0631
803.00,0.0631
802.00,0.0632
801.00,0.0636
800.00,0.0640
799.00,0.0643
798.00,0.0643
797.00,0.0642
796.00,0.0641
795.00,0.0641
794.00,0.0641
793.00,0.0641
792.00,0.0642
791.00,0.0644
790.00,0.0647
789.00,0.0648
788.00,0.0649
787.00,0.0649
786.00,0.0651
785.00,0.0653
784.00,0.0655
783.00,0.0657
782.00,0.0658
781.00,0.0658
780.00,0.0657
779.00,0.0657
778.00,0.0658
777.00,0.0662
776.00,0.0665
775.00,0.0666
774.00,0.0664
773.00,0.0661
772.00,0.0660
771.00,0.0661
770.00,0.0664
769.00,0.0666
768.00,0.0668
767.00,0.0668
766.00,0.0668
765.00,0.0667
764.00,0.0667
763.00,0.0667
762.00,0.0667
761.00,0.0666
760.00,0.0667
759.00,0.0670
758.00,0.0673
757.00,0.0675
756.00,0.0675
755.00,0.0675
754.00,0.0675
753.00,0.0675
752.00,0.0677
751.00,0.0679
750.00,0.0681
749.00,0.0683
748.00,0.0684
747.00,0.0685
746.00,0.0685
745.00,0.0685
744.00,0.0684
743.00,0.0682
742.00,0.0680
741.00,0.0679
740.00,0.0679
739.00,0.0679
738.00,0.0679
737.00,0.0681
736.00,0.0682
735.00,0.0682
734.00,0.0682
733.00,0.0681
732.00,0.0682
731.00,0.0683
730.00,0.0685
729.00,0.0689
728.00,0.0696
727.00,0.0702
726.00,0.0706
725.00,0.0706
724.00,0.0703
723.00,0.0698
722.00,0.0695
721.00,0.0696
720.00,0.0700
719.00,0.0704
718.00,0.0707
717.00,0.0707
716.00,0.0707
715.00,0.0706
714.00,0.0708
713.00,0.0711
712.00,0.0713
711.00,0.0713
710.00,0.0711
709.00,0.0710
708.00,0.0711
707.00,0.0713
706.00,0.0716
705.00,0.0719
704.00,0.0723
703.00,0.0726
702.00,0.0727
701.00,0.0726
700.00,0.0725
699.00,0.0725
698.00,0.0727
697.00,0.0730
696.00,0.0732
695.00,0.0734
694.00,0.0736
693.00,0.0739
692.00,0.0741
691.00,0.0742
690.00,0.0742
689.00,0.0743
688.00,0.0744
687.00,0.0745
686.00,0.0745
685.00,0.0746
684.00,0.0745
683.00,0.0743
682.00,0.0739
681.00,0.0738
680.00,0.0740
679.00,0.0744
678.00,0.0747
677.00,0.0751
676.00,0.0753
675.00,0.0754
674.00,0.0754
673.00,0.0754
672.00,0.0755
671.00,0.0757
670.00,0.0761
669.00,0.0768
668.00,0.0778
667.00,0.0785
666.00,0.0785
665.00,0.0784
664.00,0.0784
663.00,0.0782
662.00,0.0776
661.00,0.0765
660.00,0.0757
659.00,0.0755
658.00,0.0761
657.00,0.0773
656.00,0.0784
655.00,0.0790
654.00,0.0787
653.00,0.0784
652.00,0.0768
651.00,0.0761
650.00,0.0765
