Created as New Dataset,Monday, April 03 2023
cm-1,A
4000.00,0.0369
3999.00,0.0369
3998.00,0.0369
3997.00,0.0368
3996.00,0.0369
3995.00,0.0369
3994.00,0.0368
3993.00,0.0368
3992.00,0.0368
3991.00,0.0368
3990.00,0.0368
3989.00,0.0367
3988.00,0.0367
3987.00,0.0367
3986.00,0.0368
3985.00,0.0368
3984.00,0.0368
3983.00,0.0367
3982.00,0.0367
3981.00,0.0366
3980.00,0.0366
3979.00,0.0367
3978.00,0.0367
3977.00,0.0368
3976.00,0.0368
3975.00,0.0368
3974.00,0.0368
3973.00,0.0367
3972.00,0.0367
3971.00,0.0366
3970.00,0.0366
3969.00,0.0365
3968.00,0.0365
3967.00,0.0365
3966.00,0.0366
3965.00,0.0366
3964.00,0.0366
3963.00,0.0367
3962.00,0.0367
3961.00,0.0366
3960.00,0.0366
3959.00,0.0365
3958.00,0.0365
3957.00,0.0365
3956.00,0.0365
3955.00,0.0365
3954.00,0.0365
3953.00,0.0365
3952.00,0.0365
3951.00,0.0365
3950.00,0.0365
3949.00,0.0365
3948.00,0.0365
3947.00,0.0365
3946.00,0.0366
3945.00,0.0366
3944.00,0.0365
3943.00,0.0364
3942.00,0.0364
3941.00,0.0364
3940.00,0.0364
3939.00,0.0364
3938.00,0.0364
3937.00,0.0364
3936.00,0.0364
3935.00,0.0365
3934.00,0.0365
3933.00,0.0365
3932.00,0.0365
3931.00,0.0364
3930.00,0.0364
3929.00,0.0363
3928.00,0.0363
3927.00,0.0363
3926.00,0.0363
3925.00,0.0363
3924.00,0.0362
3923.00,0.0362
3922.00,0.0363
3921.00,0.0363
3920.00,0.0363
3919.00,0.0363
3918.00,0.0364
3917.00,0.0363
3916.00,0.0363
3915.00,0.0362
3914.00,0.0363
3913.00,0.0363
3912.00,0.0363
3911.00,0.0363
3910.00,0.0363
3909.00,0.0363
3908.00,0.0363
3907.00,0.0363
3906.00,0.0363
3905.00,0.0362
3904.00,0.0362
3903.00,0.0363
3902.00,0.0364
3901.00,0.0364
3900.00,0.0363
3899.00,0.0362
3898.00,0.0362
3897.00,0.0363
3896.00,0.0364
3895.00,0.0363
3894.00,0.0363
3893.00,0.0362
3892.00,0.0362
3891.00,0.0361
3890.00,0.0361
3889.00,0.0363
3888.00,0.0364
3887.00,0.0364
3886.00,0.0363
3885.00,0.0362
3884.00,0.0363
3883.00,0.0363
3882.00,0.0362
3881.00,0.0360
3880.00,0.0359
3879.00,0.0359
3878.00,0.0361
3877.00,0.0362
3876.00,0.0362
3875.00,0.0360
3874.00,0.0360
3873.00,0.0360
3872.00,0.0362
3871.00,0.0361
3870.00,0.0360
3869.00,0.0360
3868.00,0.0362
3867.00,0.0364
3866.00,0.0364
3865.00,0.0362
3864.00,0.0361
3863.00,0.0360
3862.00,0.0360
3861.00,0.0361
3860.00,0.0361
3859.00,0.0361
3858.00,0.0361
3857.00,0.0360
3856.00,0.0360
3855.00,0.0362
3854.00,0.0365
3853.00,0.0363
3852.00,0.0360
3851.00,0.0360
3850.00,0.0361
3849.00,0.0361
3848.00,0.0361
3847.00,0.0360
3846.00,0.0360
3845.00,0.0360
3844.00,0.0360
3843.00,0.0360
3842.00,0.0360
3841.00,0.0361
3840.00,0.0361
3839.00,0.0361
3838.00,0.0361
3837.00,0.0360
3836.00,0.0360
3835.00,0.0360
3834.00,0.0360
3833.00,0.0360
3832.00,0.0360
3831.00,0.0360
3830.00,0.0361
3829.00,0.0362
3828.00,0.0361
3827.00,0.0360
3826.00,0.0359
3825.00,0.0359
3824.00,0.0360
3823.00,0.0360
3822.00,0.0360
3821.00,0.0359
3820.00,0.0359
3819.00,0.0361
3818.00,0.0362
3817.00,0.0360
3816.00,0.0358
3815.00,0.0357
3814.00,0.0357
3813.00,0.0358
3812.00,0.0357
3811.00,0.0356
3810.00,0.0356
3809.00,0.0357
3808.00,0.0358
3807.00,0.0358
3806.00,0.0359
3805.00,0.0360
3804.00,0.0361
3803.00,0.0361
3802.00,0.0359
3801.00,0.0358
3800.00,0.0358
3799.00,0.0359
3798.00,0.0358
3797.00,0.0356
3796.00,0.0355
3795.00,0.0355
3794.00,0.0356
3793.00,0.0356
3792.00,0.0356
3791.00,0.0355
3790.00,0.0355
3789.00,0.0355
3788.00,0.0356
3787.00,0.0356
3786.00,0.0356
3785.00,0.0355
3784.00,0.0355
3783.00,0.0355
3782.00,0.0355
3781.00,0.0355
3780.00,0.0354
3779.00,0.0353
3778.00,0.0353
3777.00,0.0354
3776.00,0.0354
3775.00,0.0354
3774.00,0.0354
3773.00,0.0354
3772.00,0.0355
3771.00,0.0355
3770.00,0.0355
3769.00,0.0355
3768.00,0.0355
3767.00,0.0356
3766.00,0.0355
3765.00,0.0354
3764.00,0.0354
3763.00,0.0356
3762.00,0.0356
3761.00,0.0356
3760.00,0.0355
3759.00,0.0355
3758.00,0.0354
3757.00,0.0354
3756.00,0.0354
3755.00,0.0354
3754.00,0.0355
3753.00,0.0356
3752.00,0.0358
3751.00,0.0359
3750.00,0.0359
3749.00,0.0358
3748.00,0.0358
3747.00,0.0358
3746.00,0.0356
3745.00,0.0354
3744.00,0.0353
3743.00,0.0353
3742.00,0.0356
3741.00,0.0356
3740.00,0.0356
3739.00,0.0355
3738.00,0.0355
3737.00,0.0356
3736.00,0.0355
3735.00,0.0354
3734.00,0.0352
3733.00,0.0352
3732.00,0.0351
3731.00,0.0351
3730.00,0.0352
3729.00,0.0353
3728.00,0.0352
3727.00,0.0352
3726.00,0.0351
3725.00,0.0351
3724.00,0.0351
3723.00,0.0350
3722.00,0.0350
3721.00,0.0349
3720.00,0.0350
3719.00,0.0350
3718.00,0.0350
3717.00,0.0350
3716.00,0.0351
3715.00,0.0351
3714.00,0.0351
3713.00,0.0351
3712.00,0.0351
3711.00,0.0350
3710.00,0.0350
3709.00,0.0350
3708.00,0.0351
3707.00,0.0351
3706.00,0.0352
3705.00,0.0352
3704.00,0.0352
3703.00,0.0352
3702.00,0.0351
3701.00,0.0351
3700.00,0.0352
3699.00,0.0353
3698.00,0.0353
3697.00,0.0353
3696.00,0.0353
3695.00,0.0353
3694.00,0.0353
3693.00,0.0353
3692.00,0.0353
3691.00,0.0353
3690.00,0.0354
3689.00,0.0353
3688.00,0.0351
3687.00,0.0351
3686.00,0.0352
3685.00,0.0352
3684.00,0.0351
3683.00,0.0351
3682.00,0.0351
3681.00,0.0350
3680.00,0.0349
3679.00,0.0349
3678.00,0.0349
3677.00,0.0350
3676.00,0.0351
3675.00,0.0351
3674.00,0.0352
3673.00,0.0355
3672.00,0.0356
3671.00,0.0354
3670.00,0.0352
3669.00,0.0350
3668.00,0.0350
3667.00,0.0351
3666.00,0.0352
3665.00,0.0352
3664.00,0.0353
3663.00,0.0353
3662.00,0.0354
3661.00,0.0354
3660.00,0.0354
3659.00,0.0355
3658.00,0.0357
3657.00,0.0358
3656.00,0.0359
3655.00,0.0359
3654.00,0.0359
3653.00,0.0358
3652.00,0.0357
3651.00,0.0359
3650.00,0.0364
3649.00,0.0367
3648.00,0.0366
3647.00,0.0364
3646.00,0.0364
3645.00,0.0365
3644.00,0.0366
3643.00,0.0367
3642.00,0.0367
3641.00,0.0367
3640.00,0.0368
3639.00,0.0369
3638.00,0.0369
3637.00,0.0369
3636.00,0.0370
3635.00,0.0371
3634.00,0.0371
3633.00,0.0371
3632.00,0.0372
3631.00,0.0373
3630.00,0.0375
3629.00,0.0377
3628.00,0.0378
3627.00,0.0379
3626.00,0.0381
3625.00,0.0382
3624.00,0.0381
3623.00,0.0381
3622.00,0.0382
3621.00,0.0383
3620.00,0.0384
3619.00,0.0385
3618.00,0.0385
3617.00,0.0385
3616.00,0.0386
3615.00,0.0386
3614.00,0.0385
3613.00,0.0385
3612.00,0.0386
3611.00,0.0387
3610.00,0.0388
3609.00,0.0389
3608.00,0.0389
3607.00,0.0390
3606.00,0.0391
3605.00,0.0392
3604.00,0.0392
3603.00,0.0393
3602.00,0.0393
3601.00,0.0394
3600.00,0.0394
3599.00,0.0394
3598.00,0.0394
3597.00,0.0394
3596.00,0.0394
3595.00,0.0395
3594.00,0.0397
3593.00,0.0398
3592.00,0.0399
3591.00,0.0399
3590.00,0.0399
3589.00,0.0400
3588.00,0.0401
3587.00,0.0401
3586.00,0.0402
3585.00,0.0402
3584.00,0.0403
3583.00,0.0403
3582.00,0.0403
3581.00,0.0404
3580.00,0.0404
3579.00,0.0405
3578.00,0.0405
3577.00,0.0405
3576.00,0.0405
3575.00,0.0406
3574.00,0.0406
3573.00,0.0407
3572.00,0.0407
3571.00,0.0407
3570.00,0.0407
3569.00,0.0409
3568.00,0.0411
3567.00,0.0413
3566.00,0.0414
3565.00,0.0414
3564.00,0.0414
3563.00,0.0414
3562.00,0.0414
3561.00,0.0414
3560.00,0.0414
3559.00,0.0415
3558.00,0.0415
3557.00,0.0416
3556.00,0.0416
3555.00,0.0417
3554.00,0.0417
3553.00,0.0418
3552.00,0.0418
3551.00,0.0419
3550.00,0.0420
3549.00,0.0421
3548.00,0.0422
3547.00,0.0423
3546.00,0.0424
3545.00,0.0425
3544.00,0.0426
3543.00,0.0426
3542.00,0.0426
3541.00,0.0425
3540.00,0.0425
3539.00,0.0426
3538.00,0.0426
3537.00,0.0427
3536.00,0.0428
3535.00,0.0429
3534.00,0.0429
3533.00,0.0430
3532.00,0.0430
3531.00,0.0430
3530.00,0.0431
3529.00,0.0432
3528.00,0.0433
3527.00,0.0434
3526.00,0.0434
3525.00,0.0434
3524.00,0.0435
3523.00,0.0435
3522.00,0.0435
3521.00,0.0435
3520.00,0.0436
3519.00,0.0436
3518.00,0.0437
3517.00,0.0437
3516.00,0.0438
3515.00,0.0438
3514.00,0.0438
3513.00,0.0438
3512.00,0.0438
3511.00,0.0439
3510.00,0.0439
3509.00,0.0440
3508.00,0.0441
3507.00,0.0441
3506.00,0.0442
3505.00,0.0442
3504.00,0.0443
3503.00,0.0443
3502.00,0.0444
3501.00,0.0444
3500.00,0.0444
3499.00,0.0445
3498.00,0.0446
3497.00,0.0446
3496.00,0.0447
3495.00,0.0448
3494.00,0.0448
3493.00,0.0448
3492.00,0.0448
3491.00,0.0449
3490.00,0.0449
3489.00,0.0450
3488.00,0.0451
3487.00,0.0451
3486.00,0.0451
3485.00,0.0451
3484.00,0.0451
3483.00,0.0451
3482.00,0.0452
3481.00,0.0453
3480.00,0.0454
3479.00,0.0455
3478.00,0.0455
3477.00,0.0455
3476.00,0.0456
3475.00,0.0456
3474.00,0.0456
3473.00,0.0456
3472.00,0.0456
3471.00,0.0457
3470.00,0.0457
3469.00,0.0458
3468.00,0.0458
3467.00,0.0459
3466.00,0.0459
3465.00,0.0460
3464.00,0.0460
3463.00,0.0461
3462.00,0.0461
3461.00,0.0461
3460.00,0.0462
3459.00,0.0462
3458.00,0.0462
3457.00,0.0462
3456.00,0.0462
3455.00,0.0462
3454.00,0.0463
3453.00,0.0463
3452.00,0.0464
3451.00,0.0465
3450.00,0.0466
3449.00,0.0466
3448.00,0.0466
3447.00,0.0466
3446.00,0.0466
3445.00,0.0467
3444.00,0.0467
3443.00,0.0468
3442.00,0.0468
3441.00,0.0469
3440.00,0.0469
3439.00,0.0469
3438.00,0.0470
3437.00,0.0470
3436.00,0.0471
3435.00,0.0472
3434.00,0.0472
3433.00,0.0472
3432.00,0.0473
3431.00,0.0473
3430.00,0.0473
3429.00,0.0473
3428.00,0.0473
3427.00,0.0474
3426.00,0.0475
3425.00,0.0475
3424.00,0.0476
3423.00,0.0476
3422.00,0.0476
3421.00,0.0477
3420.00,0.0477
3419.00,0.0477
3418.00,0.0477
3417.00,0.0477
3416.00,0.0477
3415.00,0.0477
3414.00,0.0477
3413.00,0.0478
3412.00,0.0478
3411.00,0.0478
3410.00,0.0478
3409.00,0.0478
3408.00,0.0478
3407.00,0.0479
3406.00,0.0479
3405.00,0.0480
3404.00,0.0480
3403.00,0.0480
3402.00,0.0481
3401.00,0.0481
3400.00,0.0481
3399.00,0.0481
3398.00,0.0481
3397.00,0.0481
3396.00,0.0482
3395.00,0.0482
3394.00,0.0483
3393.00,0.0483
3392.00,0.0484
3391.00,0.0484
3390.00,0.0484
3389.00,0.0484
3388.00,0.0485
3387.00,0.0485
3386.00,0.0485
3385.00,0.0485
3384.00,0.0485
3383.00,0.0485
3382.00,0.0485
3381.00,0.0485
3380.00,0.0486
3379.00,0.0487
3378.00,0.0487
3377.00,0.0487
3376.00,0.0487
3375.00,0.0487
3374.00,0.0487
3373.00,0.0487
3372.00,0.0487
3371.00,0.0487
3370.00,0.0487
3369.00,0.0487
3368.00,0.0488
3367.00,0.0488
3366.00,0.0488
3365.00,0.0489
3364.00,0.0489
3363.00,0.0489
3362.00,0.0490
3361.00,0.0489
3360.00,0.0490
3359.00,0.0490
3358.00,0.0490
3357.00,0.0491
3356.00,0.0491
3355.00,0.0491
3354.00,0.0491
3353.00,0.0491
3352.00,0.0492
3351.00,0.0492
3350.00,0.0493
3349.00,0.0493
3348.00,0.0492
3347.00,0.0492
3346.00,0.0492
3345.00,0.0492
3344.00,0.0492
3343.00,0.0493
3342.00,0.0493
3341.00,0.0493
3340.00,0.0493
3339.00,0.0493
3338.00,0.0493
3337.00,0.0493
3336.00,0.0493
3335.00,0.0493
3334.00,0.0493
3333.00,0.0493
3332.00,0.0493
3331.00,0.0493
3330.00,0.0494
3329.00,0.0494
3328.00,0.0494
3327.00,0.0494
3326.00,0.0495
3325.00,0.0495
3324.00,0.0495
3323.00,0.0494
3322.00,0.0494
3321.00,0.0494
3320.00,0.0494
3319.00,0.0494
3318.00,0.0495
3317.00,0.0495
3316.00,0.0495
3315.00,0.0495
3314.00,0.0495
3313.00,0.0496
3312.00,0.0496
3311.00,0.0496
3310.00,0.0496
3309.00,0.0496
3308.00,0.0496
3307.00,0.0496
3306.00,0.0496
3305.00,0.0496
3304.00,0.0496
3303.00,0.0496
3302.00,0.0496
3301.00,0.0497
3300.00,0.0497
3299.00,0.0498
3298.00,0.0498
3297.00,0.0498
3296.00,0.0498
3295.00,0.0498
3294.00,0.0498
3293.00,0.0498
3292.00,0.0498
3291.00,0.0498
3290.00,0.0498
3289.00,0.0498
3288.00,0.0498
3287.00,0.0498
3286.00,0.0498
3285.00,0.0498
3284.00,0.0498
3283.00,0.0498
3282.00,0.0498
3281.00,0.0498
3280.00,0.0498
3279.00,0.0498
3278.00,0.0499
3277.00,0.0499
3276.00,0.0499
3275.00,0.0499
3274.00,0.0499
3273.00,0.0500
3272.00,0.0500
3271.00,0.0500
3270.00,0.0500
3269.00,0.0500
3268.00,0.0500
3267.00,0.0500
3266.00,0.0500
3265.00,0.0500
3264.00,0.0499
3263.00,0.0499
3262.00,0.0498
3261.00,0.0498
3260.00,0.0498
3259.00,0.0498
3258.00,0.0499
3257.00,0.0499
3256.00,0.0500
3255.00,0.0500
3254.00,0.0501
3253.00,0.0501
3252.00,0.0501
3251.00,0.0500
3250.00,0.0500
3249.00,0.0500
3248.00,0.0501
3247.00,0.0501
3246.00,0.0501
3245.00,0.0501
3244.00,0.0501
3243.00,0.0501
3242.00,0.0501
3241.00,0.0501
3240.00,0.0501
3239.00,0.0501
3238.00,0.0501
3237.00,0.0501
3236.00,0.0501
3235.00,0.0501
3234.00,0.0500
3233.00,0.0500
3232.00,0.0501
3231.00,0.0501
3230.00,0.0501
3229.00,0.0501
3228.00,0.0502
3227.00,0.0502
3226.00,0.0502
3225.00,0.0501
3224.00,0.0501
3223.00,0.0501
3222.00,0.0501
3221.00,0.0501
3220.00,0.0501
3219.00,0.0501
3218.00,0.0501
3217.00,0.0501
3216.00,0.0501
3215.00,0.0501
3214.00,0.0501
3213.00,0.0501
3212.00,0.0500
3211.00,0.0500
3210.00,0.0500
3209.00,0.0500
3208.00,0.0500
3207.00,0.0501
3206.00,0.0501
3205.00,0.0501
3204.00,0.0501
3203.00,0.0501
3202.00,0.0501
3201.00,0.0501
3200.00,0.0501
3199.00,0.0500
3198.00,0.0501
3197.00,0.0501
3196.00,0.0501
3195.00,0.0501
3194.00,0.0501
3193.00,0.0500
3192.00,0.0500
3191.00,0.0500
3190.00,0.0500
3189.00,0.0501
3188.00,0.0501
3187.00,0.0501
3186.00,0.0501
3185.00,0.0501
3184.00,0.0501
3183.00,0.0500
3182.00,0.0500
3181.00,0.0499
3180.00,0.0499
3179.00,0.0499
3178.00,0.0499
3177.00,0.0498
3176.00,0.0499
3175.00,0.0499
3174.00,0.0499
3173.00,0.0499
3172.00,0.0499
3171.00,0.0499
3170.00,0.0499
3169.00,0.0499
3168.00,0.0499
3167.00,0.0499
3166.00,0.0498
3165.00,0.0498
3164.00,0.0497
3163.00,0.0497
3162.00,0.0497
3161.00,0.0498
3160.00,0.0498
3159.00,0.0497
3158.00,0.0497
3157.00,0.0496
3156.00,0.0496
3155.00,0.0496
3154.00,0.0495
3153.00,0.0495
3152.00,0.0495
3151.00,0.0495
3150.00,0.0495
3149.00,0.0496
3148.00,0.0496
3147.00,0.0496
3146.00,0.0495
3145.00,0.0495
3144.00,0.0495
3143.00,0.0495
3142.00,0.0495
3141.00,0.0495
3140.00,0.0495
3139.00,0.0495
3138.00,0.0495
3137.00,0.0495
3136.00,0.0495
3135.00,0.0494
3134.00,0.0494
3133.00,0.0494
3132.00,0.0494
3131.00,0.0494
3130.00,0.0493
3129.00,0.0493
3128.00,0.0493
3127.00,0.0493
3126.00,0.0493
3125.00,0.0493
3124.00,0.0493
3123.00,0.0493
3122.00,0.0492
3121.00,0.0492
3120.00,0.0492
3119.00,0.0493
3118.00,0.0493
3117.00,0.0492
3116.00,0.0492
3115.00,0.0491
3114.00,0.0491
3113.00,0.0491
3112.00,0.0491
3111.00,0.0491
3110.00,0.0491
3109.00,0.0491
3108.00,0.0491
3107.00,0.0491
3106.00,0.0491
3105.00,0.0491
3104.00,0.0491
3103.00,0.0491
3102.00,0.0491
3101.00,0.0491
3100.00,0.0491
3099.00,0.0490
3098.00,0.0490
3097.00,0.0490
3096.00,0.0490
3095.00,0.0490
3094.00,0.0491
3093.00,0.0491
3092.00,0.0491
3091.00,0.0490
3090.00,0.0490
3089.00,0.0490
3088.00,0.0490
3087.00,0.0490
3086.00,0.0489
3085.00,0.0489
3084.00,0.0489
3083.00,0.0488
3082.00,0.0488
3081.00,0.0488
3080.00,0.0489
3079.00,0.0489
3078.00,0.0489
3077.00,0.0488
3076.00,0.0488
3075.00,0.0488
3074.00,0.0488
3073.00,0.0488
3072.00,0.0487
3071.00,0.0487
3070.00,0.0486
3069.00,0.0486
3068.00,0.0486
3067.00,0.0486
3066.00,0.0486
3065.00,0.0487
3064.00,0.0487
3063.00,0.0487
3062.00,0.0486
3061.00,0.0486
3060.00,0.0486
3059.00,0.0486
3058.00,0.0486
3057.00,0.0485
3056.00,0.0485
3055.00,0.0485
3054.00,0.0484
3053.00,0.0484
3052.00,0.0484
3051.00,0.0485
3050.00,0.0485
3049.00,0.0484
3048.00,0.0484
3047.00,0.0484
3046.00,0.0484
3045.00,0.0484
3044.00,0.0484
3043.00,0.0484
3042.00,0.0483
3041.00,0.0483
3040.00,0.0482
3039.00,0.0482
3038.00,0.0482
3037.00,0.0482
3036.00,0.0482
3035.00,0.0482
3034.00,0.0481
3033.00,0.0481
3032.00,0.0480
3031.00,0.0480
3030.00,0.0480
3029.00,0.0480
3028.00,0.0479
3027.00,0.0479
3026.00,0.0479
3025.00,0.0479
3024.00,0.0479
3023.00,0.0478
3022.00,0.0478
3021.00,0.0478
3020.00,0.0478
3019.00,0.0477
3018.00,0.0477
3017.00,0.0477
3016.00,0.0477
3015.00,0.0477
3014.00,0.0477
3013.00,0.0477
3012.00,0.0477
3011.00,0.0477
3010.00,0.0476
3009.00,0.0475
3008.00,0.0474
3007.00,0.0474
3006.00,0.0473
3005.00,0.0473
3004.00,0.0472
3003.00,0.0472
3002.00,0.0471
3001.00,0.0471
3000.00,0.0471
2999.00,0.0471
2998.00,0.0471
2997.00,0.0470
2996.00,0.0470
2995.00,0.0470
2994.00,0.0469
2993.00,0.0469
2992.00,0.0469
2991.00,0.0469
2990.00,0.0468
2989.00,0.0468
2988.00,0.0468
2987.00,0.0468
2986.00,0.0468
2985.00,0.0467
2984.00,0.0466
2983.00,0.0465
2982.00,0.0465
2981.00,0.0464
2980.00,0.0464
2979.00,0.0465
2978.00,0.0465
2977.00,0.0465
2976.00,0.0465
2975.00,0.0465
2974.00,0.0465
2973.00,0.0465
2972.00,0.0465
2971.00,0.0464
2970.00,0.0464
2969.00,0.0464
2968.00,0.0464
2967.00,0.0464
2966.00,0.0464
2965.00,0.0464
2964.00,0.0464
2963.00,0.0464
2962.00,0.0464
2961.00,0.0463
2960.00,0.0463
2959.00,0.0463
2958.00,0.0463
2957.00,0.0464
2956.00,0.0464
2955.00,0.0464
2954.00,0.0465
2953.00,0.0465
2952.00,0.0465
2951.00,0.0465
2950.00,0.0465
2949.00,0.0465
2948.00,0.0465
2947.00,0.0465
2946.00,0.0465
2945.00,0.0465
2944.00,0.0465
2943.00,0.0465
2942.00,0.0465
2941.00,0.0465
2940.00,0.0464
2939.00,0.0464
2938.00,0.0464
2937.00,0.0463
2936.00,0.0463
2935.00,0.0463
2934.00,0.0462
2933.00,0.0462
2932.00,0.0461
2931.00,0.0460
2930.00,0.0459
2929.00,0.0458
2928.00,0.0458
2927.00,0.0457
2926.00,0.0457
2925.00,0.0456
2924.00,0.0456
2923.00,0.0456
2922.00,0.0456
2921.00,0.0456
2920.00,0.0456
2919.00,0.0456
2918.00,0.0455
2917.00,0.0455
2916.00,0.0455
2915.00,0.0456
2914.00,0.0457
2913.00,0.0458
2912.00,0.0458
2911.00,0.0459
2910.00,0.0459
2909.00,0.0459
2908.00,0.0459
2907.00,0.0458
2906.00,0.0459
2905.00,0.0459
2904.00,0.0459
2903.00,0.0459
2902.00,0.0459
2901.00,0.0458
2900.00,0.0458
2899.00,0.0458
2898.00,0.0458
2897.00,0.0458
2896.00,0.0457
2895.00,0.0457
2894.00,0.0457
2893.00,0.0457
2892.00,0.0457
2891.00,0.0456
2890.00,0.0456
2889.00,0.0456
2888.00,0.0456
2887.00,0.0456
2886.00,0.0456
2885.00,0.0456
2884.00,0.0456
2883.00,0.0455
2882.00,0.0455
2881.00,0.0455
2880.00,0.0455
2879.00,0.0455
2878.00,0.0455
2877.00,0.0455
2876.00,0.0455
2875.00,0.0455
2874.00,0.0455
2873.00,0.0454
2872.00,0.0454
2871.00,0.0454
2870.00,0.0453
2869.00,0.0453
2868.00,0.0452
2867.00,0.0452
2866.00,0.0452
2865.00,0.0451
2864.00,0.0451
2863.00,0.0451
2862.00,0.0451
2861.00,0.0451
2860.00,0.0451
2859.00,0.0450
2858.00,0.0450
2857.00,0.0449
2856.00,0.0449
2855.00,0.0448
2854.00,0.0448
2853.00,0.0447
2852.00,0.0447
2851.00,0.0447
2850.00,0.0447
2849.00,0.0447
2848.00,0.0447
2847.00,0.0447
2846.00,0.0447
2845.00,0.0447
2844.00,0.0448
2843.00,0.0448
2842.00,0.0448
2841.00,0.0448
2840.00,0.0449
2839.00,0.0449
2838.00,0.0449
2837.00,0.0449
2836.00,0.0448
2835.00,0.0448
2834.00,0.0447
2833.00,0.0446
2832.00,0.0446
2831.00,0.0446
2830.00,0.0446
2829.00,0.0446
2828.00,0.0445
2827.00,0.0445
2826.00,0.0445
2825.00,0.0445
2824.00,0.0444
2823.00,0.0444
2822.00,0.0444
2821.00,0.0444
2820.00,0.0444
2819.00,0.0444
2818.00,0.0444
2817.00,0.0443
2816.00,0.0443
2815.00,0.0443
2814.00,0.0443
2813.00,0.0443
2812.00,0.0443
2811.00,0.0443
2810.00,0.0443
2809.00,0.0442
2808.00,0.0442
2807.00,0.0441
2806.00,0.0441
2805.00,0.0441
2804.00,0.0440
2803.00,0.0440
2802.00,0.0440
2801.00,0.0440
2800.00,0.0440
2799.00,0.0440
2798.00,0.0439
2797.00,0.0439
2796.00,0.0438
2795.00,0.0438
2794.00,0.0438
2793.00,0.0438
2792.00,0.0438
2791.00,0.0438
2790.00,0.0437
2789.00,0.0437
2788.00,0.0437
2787.00,0.0437
2786.00,0.0437
2785.00,0.0437
2784.00,0.0436
2783.00,0.0436
2782.00,0.0435
2781.00,0.0435
2780.00,0.0435
2779.00,0.0435
2778.00,0.0434
2777.00,0.0434
2776.00,0.0434
2775.00,0.0434
2774.00,0.0434
2773.00,0.0434
2772.00,0.0434
2771.00,0.0434
2770.00,0.0434
2769.00,0.0434
2768.00,0.0433
2767.00,0.0433
2766.00,0.0433
2765.00,0.0432
2764.00,0.0432
2763.00,0.0432
2762.00,0.0432
2761.00,0.0432
2760.00,0.0431
2759.00,0.0431
2758.00,0.0431
2757.00,0.0431
2756.00,0.0431
2755.00,0.0431
2754.00,0.0431
2753.00,0.0431
2752.00,0.0430
2751.00,0.0430
2750.00,0.0430
2749.00,0.0430
2748.00,0.0430
2747.00,0.0430
2746.00,0.0429
2745.00,0.0429
2744.00,0.0429
2743.00,0.0428
2742.00,0.0428
2741.00,0.0428
2740.00,0.0428
2739.00,0.0428
2738.00,0.0428
2737.00,0.0428
2736.00,0.0428
2735.00,0.0427
2734.00,0.0427
2733.00,0.0427
2732.00,0.0426
2731.00,0.0426
2730.00,0.0426
2729.00,0.0426
2728.00,0.0426
2727.00,0.0425
2726.00,0.0425
2725.00,0.0425
2724.00,0.0425
2723.00,0.0425
2722.00,0.0425
2721.00,0.0425
2720.00,0.0425
2719.00,0.0425
2718.00,0.0425
2717.00,0.0425
2716.00,0.0424
2715.00,0.0424
2714.00,0.0424
2713.00,0.0423
2712.00,0.0423
2711.00,0.0423
2710.00,0.0423
2709.00,0.0422
2708.00,0.0422
2707.00,0.0422
2706.00,0.0422
2705.00,0.0421
2704.00,0.0421
2703.00,0.0421
2702.00,0.0421
2701.00,0.0421
2700.00,0.0421
2699.00,0.0420
2698.00,0.0420
2697.00,0.0420
2696.00,0.0421
2695.00,0.0421
2694.00,0.0420
2693.00,0.0420
2692.00,0.0420
2691.00,0.0419
2690.00,0.0419
2689.00,0.0419
2688.00,0.0419
2687.00,0.0419
2686.00,0.0419
2685.00,0.0419
2684.00,0.0419
2683.00,0.0419
2682.00,0.0418
2681.00,0.0418
2680.00,0.0418
2679.00,0.0418
2678.00,0.0418
2677.00,0.0418
2676.00,0.0417
2675.00,0.0418
2674.00,0.0418
2673.00,0.0418
2672.00,0.0418
2671.00,0.0418
2670.00,0.0418
2669.00,0.0418
2668.00,0.0418
2667.00,0.0418
2666.00,0.0418
2665.00,0.0418
2664.00,0.0418
2663.00,0.0418
2662.00,0.0418
2661.00,0.0418
2660.00,0.0418
2659.00,0.0417
2658.00,0.0418
2657.00,0.0418
2656.00,0.0418
2655.00,0.0419
2654.00,0.0419
2653.00,0.0419
2652.00,0.0419
2651.00,0.0419
2650.00,0.0419
2649.00,0.0419
2648.00,0.0418
2647.00,0.0418
2646.00,0.0418
2645.00,0.0418
2644.00,0.0418
2643.00,0.0419
2642.00,0.0419
2641.00,0.0419
2640.00,0.0419
2639.00,0.0419
2638.00,0.0418
2637.00,0.0418
2636.00,0.0418
2635.00,0.0419
2634.00,0.0419
2633.00,0.0419
2632.00,0.0419
2631.00,0.0419
2630.00,0.0419
2629.00,0.0419
2628.00,0.0419
2627.00,0.0419
2626.00,0.0419
2625.00,0.0419
2624.00,0.0419
2623.00,0.0419
2622.00,0.0419
2621.00,0.0419
2620.00,0.0419
2619.00,0.0418
2618.00,0.0418
2617.00,0.0419
2616.00,0.0419
2615.00,0.0419
2614.00,0.0419
2613.00,0.0419
2612.00,0.0420
2611.00,0.0420
2610.00,0.0420
2609.00,0.0420
2608.00,0.0420
2607.00,0.0420
2606.00,0.0420
2605.00,0.0420
2604.00,0.0420
2603.00,0.0419
2602.00,0.0419
2601.00,0.0419
2600.00,0.0419
2599.00,0.0419
2598.00,0.0419
2597.00,0.0418
2596.00,0.0418
2595.00,0.0419
2594.00,0.0419
2593.00,0.0419
2592.00,0.0419
2591.00,0.0419
2590.00,0.0419
2589.00,0.0419
2588.00,0.0419
2587.00,0.0419
2586.00,0.0419
2585.00,0.0419
2584.00,0.0419
2583.00,0.0419
2582.00,0.0419
2581.00,0.0419
2580.00,0.0419
2579.00,0.0420
2578.00,0.0419
2577.00,0.0419
2576.00,0.0419
2575.00,0.0419
2574.00,0.0419
2573.00,0.0418
2572.00,0.0418
2571.00,0.0418
2570.00,0.0418
2569.00,0.0419
2568.00,0.0419
2567.00,0.0419
2566.00,0.0419
2565.00,0.0419
2564.00,0.0419
2563.00,0.0419
2562.00,0.0418
2561.00,0.0418
2560.00,0.0418
2559.00,0.0418
2558.00,0.0418
2557.00,0.0418
2556.00,0.0418
2555.00,0.0418
2554.00,0.0419
2553.00,0.0419
2552.00,0.0419
2551.00,0.0419
2550.00,0.0419
2549.00,0.0419
2548.00,0.0418
2547.00,0.0418
2546.00,0.0418
2545.00,0.0418
2544.00,0.0418
2543.00,0.0418
2542.00,0.0417
2541.00,0.0417
2540.00,0.0417
2539.00,0.0417
2538.00,0.0417
2537.00,0.0417
2536.00,0.0416
2535.00,0.0416
2534.00,0.0415
2533.00,0.0415
2532.00,0.0415
2531.00,0.0415
2530.00,0.0415
2529.00,0.0415
2528.00,0.0416
2527.00,0.0416
2526.00,0.0416
2525.00,0.0416
2524.00,0.0416
2523.00,0.0416
2522.00,0.0416
2521.00,0.0416
2520.00,0.0416
2519.00,0.0416
2518.00,0.0416
2517.00,0.0416
2516.00,0.0416
2515.00,0.0416
2514.00,0.0416
2513.00,0.0417
2512.00,0.0417
2511.00,0.0417
2510.00,0.0417
2509.00,0.0416
2508.00,0.0416
2507.00,0.0415
2506.00,0.0415
2505.00,0.0415
2504.00,0.0415
2503.00,0.0415
2502.00,0.0415
2501.00,0.0414
2500.00,0.0414
2499.00,0.0415
2498.00,0.0415
2497.00,0.0415
2496.00,0.0415
2495.00,0.0415
2494.00,0.0415
2493.00,0.0415
2492.00,0.0415
2491.00,0.0415
2490.00,0.0415
2489.00,0.0414
2488.00,0.0413
2487.00,0.0413
2486.00,0.0413
2485.00,0.0413
2484.00,0.0413
2483.00,0.0413
2482.00,0.0413
2481.00,0.0413
2480.00,0.0413
2479.00,0.0413
2478.00,0.0413
2477.00,0.0413
2476.00,0.0412
2475.00,0.0412
2474.00,0.0412
2473.00,0.0412
2472.00,0.0412
2471.00,0.0412
2470.00,0.0412
2469.00,0.0412
2468.00,0.0412
2467.00,0.0412
2466.00,0.0412
2465.00,0.0412
2464.00,0.0412
2463.00,0.0412
2462.00,0.0412
2461.00,0.0412
2460.00,0.0412
2459.00,0.0412
2458.00,0.0412
2457.00,0.0412
2456.00,0.0411
2455.00,0.0411
2454.00,0.0411
2453.00,0.0411
2452.00,0.0411
2451.00,0.0411
2450.00,0.0411
2449.00,0.0411
2448.00,0.0411
2447.00,0.0410
2446.00,0.0410
2445.00,0.0410
2444.00,0.0410
2443.00,0.0409
2442.00,0.0409
2441.00,0.0409
2440.00,0.0409
2439.00,0.0409
2438.00,0.0409
2437.00,0.0408
2436.00,0.0408
2435.00,0.0408
2434.00,0.0408
2433.00,0.0408
2432.00,0.0408
2431.00,0.0407
2430.00,0.0407
2429.00,0.0406
2428.00,0.0406
2427.00,0.0407
2426.00,0.0407
2425.00,0.0408
2424.00,0.0408
2423.00,0.0407
2422.00,0.0407
2421.00,0.0406
2420.00,0.0406
2419.00,0.0405
2418.00,0.0405
2417.00,0.0405
2416.00,0.0405
2415.00,0.0405
2414.00,0.0405
2413.00,0.0405
2412.00,0.0405
2411.00,0.0405
2410.00,0.0404
2409.00,0.0404
2408.00,0.0404
2407.00,0.0404
2406.00,0.0404
2405.00,0.0404
2404.00,0.0404
2403.00,0.0404
2402.00,0.0404
2401.00,0.0403
2400.00,0.0402
2399.00,0.0402
2398.00,0.0402
2397.00,0.0402
2396.00,0.0402
2395.00,0.0402
2394.00,0.0401
2393.00,0.0401
2392.00,0.0400
2391.00,0.0399
2390.00,0.0399
2389.00,0.0398
2388.00,0.0398
2387.00,0.0397
2386.00,0.0397
2385.00,0.0396
2384.00,0.0396
2383.00,0.0395
2382.00,0.0395
2381.00,0.0395
2380.00,0.0395
2379.00,0.0395
2378.00,0.0395
2377.00,0.0395
2376.00,0.0396
2375.00,0.0396
2374.00,0.0396
2373.00,0.0397
2372.00,0.0397
2371.00,0.0397
2370.00,0.0397
2369.00,0.0397
2368.00,0.0396
2367.00,0.0395
2366.00,0.0396
2365.00,0.0397
2364.00,0.0397
2363.00,0.0396
2362.00,0.0395
2361.00,0.0396
2360.00,0.0397
2359.00,0.0398
2358.00,0.0398
2357.00,0.0397
2356.00,0.0395
2355.00,0.0393
2354.00,0.0393
2353.00,0.0397
2352.00,0.0403
2351.00,0.0409
2350.00,0.0410
2349.00,0.0406
2348.00,0.0398
2347.00,0.0391
2346.00,0.0388
2345.00,0.0389
2344.00,0.0392
2343.00,0.0394
2342.00,0.0395
2341.00,0.0395
2340.00,0.0395
2339.00,0.0394
2338.00,0.0394
2337.00,0.0395
2336.00,0.0395
2335.00,0.0394
2334.00,0.0393
2333.00,0.0392
2332.00,0.0392
2331.00,0.0393
2330.00,0.0394
2329.00,0.0394
2328.00,0.0395
2327.00,0.0395
2326.00,0.0395
2325.00,0.0395
2324.00,0.0395
2323.00,0.0395
2322.00,0.0396
2321.00,0.0397
2320.00,0.0398
2319.00,0.0398
2318.00,0.0397
2317.00,0.0395
2316.00,0.0394
2315.00,0.0392
2314.00,0.0391
2313.00,0.0391
2312.00,0.0392
2311.00,0.0393
2310.00,0.0394
2309.00,0.0395
2308.00,0.0395
2307.00,0.0395
2306.00,0.0395
2305.00,0.0395
2304.00,0.0394
2303.00,0.0393
2302.00,0.0392
2301.00,0.0391
2300.00,0.0390
2299.00,0.0390
2298.00,0.0390
2297.00,0.0391
2296.00,0.0391
2295.00,0.0392
2294.00,0.0392
2293.00,0.0392
2292.00,0.0392
2291.00,0.0393
2290.00,0.0393
2289.00,0.0394
2288.00,0.0394
2287.00,0.0394
2286.00,0.0394
2285.00,0.0393
2284.00,0.0393
2283.00,0.0393
2282.00,0.0392
2281.00,0.0392
2280.00,0.0391
2279.00,0.0391
2278.00,0.0391
2277.00,0.0390
2276.00,0.0389
2275.00,0.0389
2274.00,0.0390
2273.00,0.0390
2272.00,0.0390
2271.00,0.0390
2270.00,0.0390
2269.00,0.0390
2268.00,0.0389
2267.00,0.0389
2266.00,0.0389
2265.00,0.0389
2264.00,0.0389
2263.00,0.0390
2262.00,0.0390
2261.00,0.0391
2260.00,0.0392
2259.00,0.0392
2258.00,0.0391
2257.00,0.0390
2256.00,0.0388
2255.00,0.0388
2254.00,0.0388
2253.00,0.0389
2252.00,0.0389
2251.00,0.0390
2250.00,0.0389
2249.00,0.0389
2248.00,0.0388
2247.00,0.0388
2246.00,0.0388
2245.00,0.0388
2244.00,0.0389
2243.00,0.0389
2242.00,0.0388
2241.00,0.0388
2240.00,0.0389
2239.00,0.0389
2238.00,0.0389
2237.00,0.0389
2236.00,0.0389
2235.00,0.0389
2234.00,0.0389
2233.00,0.0389
2232.00,0.0390
2231.00,0.0390
2230.00,0.0389
2229.00,0.0389
2228.00,0.0388
2227.00,0.0388
2226.00,0.0387
2225.00,0.0386
2224.00,0.0387
2223.00,0.0388
2222.00,0.0389
2221.00,0.0389
2220.00,0.0389
2219.00,0.0388
2218.00,0.0388
2217.00,0.0387
2216.00,0.0387
2215.00,0.0387
2214.00,0.0388
2213.00,0.0388
2212.00,0.0387
2211.00,0.0387
2210.00,0.0387
2209.00,0.0387
2208.00,0.0386
2207.00,0.0385
2206.00,0.0384
2205.00,0.0384
2204.00,0.0384
2203.00,0.0385
2202.00,0.0387
2201.00,0.0388
2200.00,0.0388
2199.00,0.0388
2198.00,0.0388
2197.00,0.0388
2196.00,0.0387
2195.00,0.0386
2194.00,0.0386
2193.00,0.0385
2192.00,0.0384
2191.00,0.0384
2190.00,0.0386
2189.00,0.0387
2188.00,0.0389
2187.00,0.0390
2186.00,0.0389
2185.00,0.0388
2184.00,0.0386
2183.00,0.0384
2182.00,0.0384
2181.00,0.0385
2180.00,0.0386
2179.00,0.0386
2178.00,0.0385
2177.00,0.0383
2176.00,0.0383
2175.00,0.0383
2174.00,0.0383
2173.00,0.0384
2172.00,0.0385
2171.00,0.0385
2170.00,0.0387
2169.00,0.0388
2168.00,0.0389
2167.00,0.0389
2166.00,0.0388
2165.00,0.0386
2164.00,0.0385
2163.00,0.0384
2162.00,0.0383
2161.00,0.0381
2160.00,0.0378
2159.00,0.0376
2158.00,0.0376
2157.00,0.0377
2156.00,0.0377
2155.00,0.0376
2154.00,0.0375
2153.00,0.0374
2152.00,0.0373
2151.00,0.0373
2150.00,0.0372
2149.00,0.0372
2148.00,0.0372
2147.00,0.0372
2146.00,0.0372
2145.00,0.0371
2144.00,0.0371
2143.00,0.0371
2142.00,0.0371
2141.00,0.0371
2140.00,0.0372
2139.00,0.0371
2138.00,0.0371
2137.00,0.0370
2136.00,0.0368
2135.00,0.0367
2134.00,0.0366
2133.00,0.0366
2132.00,0.0365
2131.00,0.0364
2130.00,0.0364
2129.00,0.0364
2128.00,0.0365
2127.00,0.0367
2126.00,0.0368
2125.00,0.0368
2124.00,0.0368
2123.00,0.0367
2122.00,0.0366
2121.00,0.0366
2120.00,0.0366
2119.00,0.0367
2118.00,0.0368
2117.00,0.0368
2116.00,0.0368
2115.00,0.0368
2114.00,0.0368
2113.00,0.0368
2112.00,0.0368
2111.00,0.0368
2110.00,0.0368
2109.00,0.0367
2108.00,0.0367
2107.00,0.0367
2106.00,0.0367
2105.00,0.0367
2104.00,0.0366
2103.00,0.0365
2102.00,0.0364
2101.00,0.0364
2100.00,0.0364
2099.00,0.0364
2098.00,0.0364
2097.00,0.0364
2096.00,0.0364
2095.00,0.0363
2094.00,0.0362
2093.00,0.0361
2092.00,0.0361
2091.00,0.0361
2090.00,0.0362
2089.00,0.0362
2088.00,0.0362
2087.00,0.0361
2086.00,0.0361
2085.00,0.0361
2084.00,0.0361
2083.00,0.0361
2082.00,0.0361
2081.00,0.0360
2080.00,0.0360
2079.00,0.0360
2078.00,0.0361
2077.00,0.0362
2076.00,0.0363
2075.00,0.0363
2074.00,0.0362
2073.00,0.0362
2072.00,0.0361
2071.00,0.0361
2070.00,0.0360
2069.00,0.0360
2068.00,0.0360
2067.00,0.0359
2066.00,0.0359
2065.00,0.0358
2064.00,0.0357
2063.00,0.0357
2062.00,0.0357
2061.00,0.0358
2060.00,0.0358
2059.00,0.0357
2058.00,0.0357
2057.00,0.0357
2056.00,0.0358
2055.00,0.0359
2054.00,0.0360
2053.00,0.0361
2052.00,0.0361
2051.00,0.0361
2050.00,0.0361
2049.00,0.0359
2048.00,0.0357
2047.00,0.0355
2046.00,0.0355
2045.00,0.0356
2044.00,0.0358
2043.00,0.0359
2042.00,0.0359
2041.00,0.0358
2040.00,0.0358
2039.00,0.0358
2038.00,0.0359
2037.00,0.0361
2036.00,0.0362
2035.00,0.0362
2034.00,0.0361
2033.00,0.0359
2032.00,0.0358
2031.00,0.0358
2030.00,0.0359
2029.00,0.0359
2028.00,0.0359
2027.00,0.0357
2026.00,0.0356
2025.00,0.0356
2024.00,0.0356
2023.00,0.0356
2022.00,0.0356
2021.00,0.0357
2020.00,0.0357
2019.00,0.0357
2018.00,0.0357
2017.00,0.0356
2016.00,0.0355
2015.00,0.0355
2014.00,0.0356
2013.00,0.0356
2012.00,0.0356
2011.00,0.0354
2010.00,0.0352
2009.00,0.0351
2008.00,0.0349
2007.00,0.0348
2006.00,0.0348
2005.00,0.0349
2004.00,0.0350
2003.00,0.0351
2002.00,0.0351
2001.00,0.0351
2000.00,0.0351
1999.00,0.0351
1998.00,0.0351
1997.00,0.0351
1996.00,0.0351
1995.00,0.0350
1994.00,0.0350
1993.00,0.0350
1992.00,0.0350
1991.00,0.0349
1990.00,0.0349
1989.00,0.0349
1988.00,0.0348
1987.00,0.0347
1986.00,0.0347
1985.00,0.0349
1984.00,0.0350
1983.00,0.0352
1982.00,0.0353
1981.00,0.0354
1980.00,0.0353
1979.00,0.0351
1978.00,0.0349
1977.00,0.0347
1976.00,0.0347
1975.00,0.0346
1974.00,0.0346
1973.00,0.0346
1972.00,0.0346
1971.00,0.0345
1970.00,0.0344
1969.00,0.0343
1968.00,0.0343
1967.00,0.0343
1966.00,0.0343
1965.00,0.0343
1964.00,0.0343
1963.00,0.0342
1962.00,0.0341
1961.00,0.0341
1960.00,0.0339
1959.00,0.0338
1958.00,0.0337
1957.00,0.0336
1956.00,0.0336
1955.00,0.0335
1954.00,0.0334
1953.00,0.0333
1952.00,0.0333
1951.00,0.0333
1950.00,0.0333
1949.00,0.0334
1948.00,0.0334
1947.00,0.0334
1946.00,0.0333
1945.00,0.0333
1944.00,0.0332
1943.00,0.0331
1942.00,0.0330
1941.00,0.0328
1940.00,0.0327
1939.00,0.0326
1938.00,0.0326
1937.00,0.0326
1936.00,0.0326
1935.00,0.0326
1934.00,0.0326
1933.00,0.0326
1932.00,0.0325
1931.00,0.0324
1930.00,0.0324
1929.00,0.0323
1928.00,0.0323
1927.00,0.0323
1926.00,0.0323
1925.00,0.0324
1924.00,0.0323
1923.00,0.0322
1922.00,0.0320
1921.00,0.0320
1920.00,0.0320
1919.00,0.0320
1918.00,0.0319
1917.00,0.0318
1916.00,0.0318
1915.00,0.0318
1914.00,0.0318
1913.00,0.0317
1912.00,0.0317
1911.00,0.0316
1910.00,0.0314
1909.00,0.0313
1908.00,0.0312
1907.00,0.0311
1906.00,0.0311
1905.00,0.0311
1904.00,0.0311
1903.00,0.0310
1902.00,0.0310
1901.00,0.0309
1900.00,0.0309
1899.00,0.0309
1898.00,0.0310
1897.00,0.0310
1896.00,0.0309
1895.00,0.0307
1894.00,0.0306
1893.00,0.0306
1892.00,0.0306
1891.00,0.0305
1890.00,0.0304
1889.00,0.0302
1888.00,0.0301
1887.00,0.0301
1886.00,0.0301
1885.00,0.0301
1884.00,0.0301
1883.00,0.0300
1882.00,0.0300
1881.00,0.0299
1880.00,0.0299
1879.00,0.0298
1878.00,0.0297
1877.00,0.0297
1876.00,0.0296
1875.00,0.0296
1874.00,0.0296
1873.00,0.0296
1872.00,0.0297
1871.00,0.0298
1870.00,0.0297
1869.00,0.0294
1868.00,0.0291
1867.00,0.0289
1866.00,0.0289
1865.00,0.0290
1864.00,0.0290
1863.00,0.0290
1862.00,0.0289
1861.00,0.0288
1860.00,0.0287
1859.00,0.0287
1858.00,0.0287
1857.00,0.0286
1856.00,0.0286
1855.00,0.0285
1854.00,0.0284
1853.00,0.0284
1852.00,0.0284
1851.00,0.0284
1850.00,0.0285
1849.00,0.0285
1848.00,0.0285
1847.00,0.0285
1846.00,0.0285
1845.00,0.0284
1844.00,0.0280
1843.00,0.0276
1842.00,0.0276
1841.00,0.0277
1840.00,0.0278
1839.00,0.0278
1838.00,0.0277
1837.00,0.0276
1836.00,0.0275
1835.00,0.0274
1834.00,0.0275
1833.00,0.0277
1832.00,0.0278
1831.00,0.0277
1830.00,0.0273
1829.00,0.0270
1828.00,0.0269
1827.00,0.0270
1826.00,0.0270
1825.00,0.0268
1824.00,0.0267
1823.00,0.0266
1822.00,0.0266
1821.00,0.0267
1820.00,0.0267
1819.00,0.0266
1818.00,0.0265
1817.00,0.0265
1816.00,0.0264
1815.00,0.0264
1814.00,0.0264
1813.00,0.0264
1812.00,0.0263
1811.00,0.0261
1810.00,0.0260
1809.00,0.0260
1808.00,0.0260
1807.00,0.0261
1806.00,0.0261
1805.00,0.0262
1804.00,0.0263
1803.00,0.0263
1802.00,0.0263
1801.00,0.0263
1800.00,0.0262
1799.00,0.0262
1798.00,0.0263
1797.00,0.0265
1796.00,0.0266
1795.00,0.0268
1794.00,0.0269
1793.00,0.0269
1792.00,0.0267
1791.00,0.0265
1790.00,0.0265
1789.00,0.0267
1788.00,0.0270
1787.00,0.0273
1786.00,0.0275
1785.00,0.0276
1784.00,0.0278
1783.00,0.0279
1782.00,0.0280
1781.00,0.0281
1780.00,0.0282
1779.00,0.0284
1778.00,0.0286
1777.00,0.0289
1776.00,0.0292
1775.00,0.0295
1774.00,0.0297
1773.00,0.0298
1772.00,0.0298
1771.00,0.0298
1770.00,0.0300
1769.00,0.0303
1768.00,0.0305
1767.00,0.0306
1766.00,0.0308
1765.00,0.0311
1764.00,0.0314
1763.00,0.0315
1762.00,0.0315
1761.00,0.0316
1760.00,0.0317
1759.00,0.0320
1758.00,0.0322
1757.00,0.0323
1756.00,0.0325
1755.00,0.0329
1754.00,0.0332
1753.00,0.0337
1752.00,0.0341
1751.00,0.0345
1750.00,0.0347
1749.00,0.0348
1748.00,0.0350
1747.00,0.0353
1746.00,0.0357
1745.00,0.0361
1744.00,0.0364
1743.00,0.0367
1742.00,0.0370
1741.00,0.0373
1740.00,0.0377
1739.00,0.0380
1738.00,0.0384
1737.00,0.0388
1736.00,0.0393
1735.00,0.0398
1734.00,0.0401
1733.00,0.0402
1732.00,0.0404
1731.00,0.0405
1730.00,0.0407
1729.00,0.0409
1728.00,0.0412
1727.00,0.0415
1726.00,0.0418
1725.00,0.0421
1724.00,0.0423
1723.00,0.0425
1722.00,0.0427
1721.00,0.0429
1720.00,0.0431
1719.00,0.0432
1718.00,0.0435
1717.00,0.0438
1716.00,0.0439
1715.00,0.0439
1714.00,0.0440
1713.00,0.0441
1712.00,0.0443
1711.00,0.0444
1710.00,0.0444
1709.00,0.0445
1708.00,0.0446
1707.00,0.0446
1706.00,0.0446
1705.00,0.0446
1704.00,0.0446
1703.00,0.0447
1702.00,0.0448
1701.00,0.0449
1700.00,0.0451
1699.00,0.0451
1698.00,0.0452
1697.00,0.0452
1696.00,0.0448
1695.00,0.0444
1694.00,0.0443
1693.00,0.0445
1692.00,0.0445
1691.00,0.0445
1690.00,0.0445
1689.00,0.0445
1688.00,0.0446
1687.00,0.0446
1686.00,0.0446
1685.00,0.0445
1684.00,0.0443
1683.00,0.0441
1682.00,0.0443
1681.00,0.0445
1680.00,0.0446
1679.00,0.0447
1678.00,0.0448
1677.00,0.0450
1676.00,0.0452
1675.00,0.0453
1674.00,0.0455
1673.00,0.0456
1672.00,0.0457
1671.00,0.0458
1670.00,0.0459
1669.00,0.0460
1668.00,0.0460
1667.00,0.0462
1666.00,0.0465
1665.00,0.0467
1664.00,0.0469
1663.00,0.0471
1662.00,0.0473
1661.00,0.0475
1660.00,0.0477
1659.00,0.0480
1658.00,0.0482
1657.00,0.0483
1656.00,0.0483
1655.00,0.0483
1654.00,0.0489
1653.00,0.0495
1652.00,0.0496
1651.00,0.0499
1650.00,0.0501
1649.00,0.0502
1648.00,0.0504
1647.00,0.0508
1646.00,0.0510
1645.00,0.0512
1644.00,0.0515
1643.00,0.0517
1642.00,0.0519
1641.00,0.0521
1640.00,0.0522
1639.00,0.0524
1638.00,0.0526
1637.00,0.0529
1636.00,0.0533
1635.00,0.0536
1634.00,0.0539
1633.00,0.0542
1632.00,0.0545
1631.00,0.0548
1630.00,0.0550
1629.00,0.0553
1628.00,0.0555
1627.00,0.0558
1626.00,0.0561
1625.00,0.0563
1624.00,0.0567
1623.00,0.0571
1622.00,0.0574
1621.00,0.0576
1620.00,0.0577
1619.00,0.0580
1618.00,0.0584
1617.00,0.0589
1616.00,0.0592
1615.00,0.0593
1614.00,0.0594
1613.00,0.0595
1612.00,0.0597
1611.00,0.0600
1610.00,0.0603
1609.00,0.0605
1608.00,0.0608
1607.00,0.0610
1606.00,0.0612
1605.00,0.0614
1604.00,0.0616
1603.00,0.0619
1602.00,0.0621
1601.00,0.0623
1600.00,0.0625
1599.00,0.0627
1598.00,0.0629
1597.00,0.0630
1596.00,0.0632
1595.00,0.0634
1594.00,0.0636
1593.00,0.0638
1592.00,0.0640
1591.00,0.0642
1590.00,0.0644
1589.00,0.0646
1588.00,0.0647
1587.00,0.0649
1586.00,0.0650
1585.00,0.0651
1584.00,0.0652
1583.00,0.0654
1582.00,0.0656
1581.00,0.0656
1580.00,0.0656
1579.00,0.0656
1578.00,0.0657
1577.00,0.0660
1576.00,0.0664
1575.00,0.0666
1574.00,0.0665
1573.00,0.0663
1572.00,0.0661
1571.00,0.0660
1570.00,0.0662
1569.00,0.0664
1568.00,0.0664
1567.00,0.0664
1566.00,0.0664
1565.00,0.0662
1564.00,0.0662
1563.00,0.0660
1562.00,0.0656
1561.00,0.0649
1560.00,0.0650
1559.00,0.0660
1558.00,0.0663
1557.00,0.0663
1556.00,0.0663
1555.00,0.0661
1554.00,0.0658
1553.00,0.0656
1552.00,0.0654
1551.00,0.0652
1550.00,0.0650
1549.00,0.0648
1548.00,0.0646
1547.00,0.0645
1546.00,0.0643
1545.00,0.0641
1544.00,0.0640
1543.00,0.0637
1542.00,0.0635
1541.00,0.0636
1540.00,0.0634
1539.00,0.0630
1538.00,0.0628
1537.00,0.0626
1536.00,0.0623
1535.00,0.0620
1534.00,0.0617
1533.00,0.0615
1532.00,0.0613
1531.00,0.0611
1530.00,0.0609
1529.00,0.0607
1528.00,0.0605
1527.00,0.0603
1526.00,0.0601
1525.00,0.0600
1524.00,0.0598
1523.00,0.0596
1522.00,0.0594
1521.00,0.0591
1520.00,0.0587
1519.00,0.0585
1518.00,0.0582
1517.00,0.0579
1516.00,0.0577
1515.00,0.0576
1514.00,0.0575
1513.00,0.0574
1512.00,0.0573
1511.00,0.0570
1510.00,0.0567
1509.00,0.0564
1508.00,0.0562
1507.00,0.0559
1506.00,0.0554
1505.00,0.0553
1504.00,0.0555
1503.00,0.0553
1502.00,0.0551
1501.00,0.0548
1500.00,0.0546
1499.00,0.0544
1498.00,0.0543
1497.00,0.0542
1496.00,0.0542
1495.00,0.0541
1494.00,0.0541
1493.00,0.0541
1492.00,0.0541
1491.00,0.0541
1490.00,0.0540
1489.00,0.0537
1488.00,0.0535
1487.00,0.0533
1486.00,0.0532
1485.00,0.0532
1484.00,0.0532
1483.00,0.0531
1482.00,0.0531
1481.00,0.0531
1480.00,0.0530
1479.00,0.0530
1478.00,0.0529
1477.00,0.0530
1476.00,0.0531
1475.00,0.0533
1474.00,0.0535
1473.00,0.0537
1472.00,0.0537
1471.00,0.0536
1470.00,0.0537
1469.00,0.0537
1468.00,0.0537
1467.00,0.0538
1466.00,0.0538
1465.00,0.0540
1464.00,0.0541
1463.00,0.0542
1462.00,0.0543
1461.00,0.0542
1460.00,0.0542
1459.00,0.0543
1458.00,0.0546
1457.00,0.0548
1456.00,0.0549
1455.00,0.0550
1454.00,0.0551
1453.00,0.0551
1452.00,0.0552
1451.00,0.0553
1450.00,0.0554
1449.00,0.0556
1448.00,0.0558
1447.00,0.0559
1446.00,0.0559
1445.00,0.0560
1444.00,0.0560
1443.00,0.0561
1442.00,0.0562
1441.00,0.0563
1440.00,0.0564
1439.00,0.0565
1438.00,0.0566
1437.00,0.0569
1436.00,0.0571
1435.00,0.0573
1434.00,0.0573
1433.00,0.0573
1432.00,0.0574
1431.00,0.0575
1430.00,0.0576
1429.00,0.0577
1428.00,0.0578
1427.00,0.0579
1426.00,0.0580
1425.00,0.0580
1424.00,0.0582
1423.00,0.0583
1422.00,0.0584
1421.00,0.0584
1420.00,0.0586
1419.00,0.0589
1418.00,0.0591
1417.00,0.0591
1416.00,0.0592
1415.00,0.0593
1414.00,0.0593
1413.00,0.0594
1412.00,0.0595
1411.00,0.0596
1410.00,0.0596
1409.00,0.0596
1408.00,0.0597
1407.00,0.0598
1406.00,0.0598
1405.00,0.0599
1404.00,0.0601
1403.00,0.0603
1402.00,0.0604
1401.00,0.0604
1400.00,0.0606
1399.00,0.0608
1398.00,0.0609
1397.00,0.0610
1396.00,0.0611
1395.00,0.0612
1394.00,0.0613
1393.00,0.0614
1392.00,0.0615
1391.00,0.0616
1390.00,0.0616
1389.00,0.0617
1388.00,0.0620
1387.00,0.0621
1386.00,0.0622
1385.00,0.0623
1384.00,0.0624
1383.00,0.0625
1382.00,0.0626
1381.00,0.0627
1380.00,0.0628
1379.00,0.0629
1378.00,0.0629
1377.00,0.0630
1376.00,0.0630
1375.00,0.0632
1374.00,0.0633
1373.00,0.0634
1372.00,0.0634
1371.00,0.0635
1370.00,0.0635
1369.00,0.0636
1368.00,0.0636
1367.00,0.0636
1366.00,0.0636
1365.00,0.0636
1364.00,0.0636
1363.00,0.0637
1362.00,0.0637
1361.00,0.0637
1360.00,0.0638
1359.00,0.0638
1358.00,0.0638
1357.00,0.0638
1356.00,0.0638
1355.00,0.0638
1354.00,0.0637
1353.00,0.0637
1352.00,0.0636
1351.00,0.0636
1350.00,0.0636
1349.00,0.0636
1348.00,0.0636
1347.00,0.0636
1346.00,0.0636
1345.00,0.0636
1344.00,0.0635
1343.00,0.0635
1342.00,0.0636
1341.00,0.0636
1340.00,0.0636
1339.00,0.0636
1338.00,0.0636
1337.00,0.0635
1336.00,0.0634
1335.00,0.0634
1334.00,0.0633
1333.00,0.0633
1332.00,0.0633
1331.00,0.0633
1330.00,0.0632
1329.00,0.0632
1328.00,0.0632
1327.00,0.0631
1326.00,0.0631
1325.00,0.0631
1324.00,0.0631
1323.00,0.0632
1322.00,0.0632
1321.00,0.0632
1320.00,0.0633
1319.00,0.0633
1318.00,0.0633
1317.00,0.0633
1316.00,0.0633
1315.00,0.0633
1314.00,0.0633
1313.00,0.0633
1312.00,0.0633
1311.00,0.0633
1310.00,0.0633
1309.00,0.0633
1308.00,0.0634
1307.00,0.0634
1306.00,0.0634
1305.00,0.0634
1304.00,0.0635
1303.00,0.0636
1302.00,0.0636
1301.00,0.0637
1300.00,0.0637
1299.00,0.0637
1298.00,0.0637
1297.00,0.0638
1296.00,0.0638
1295.00,0.0639
1294.00,0.0639
1293.00,0.0640
1292.00,0.0641
1291.00,0.0642
1290.00,0.0643
1289.00,0.0643
1288.00,0.0644
1287.00,0.0645
1286.00,0.0645
1285.00,0.0646
1284.00,0.0648
1283.00,0.0649
1282.00,0.0650
1281.00,0.0651
1280.00,0.0652
1279.00,0.0652
1278.00,0.0653
1277.00,0.0653
1276.00,0.0654
1275.00,0.0655
1274.00,0.0656
1273.00,0.0658
1272.00,0.0659
1271.00,0.0660
1270.00,0.0661
1269.00,0.0662
1268.00,0.0662
1267.00,0.0663
1266.00,0.0664
1265.00,0.0664
1264.00,0.0665
1263.00,0.0666
1262.00,0.0667
1261.00,0.0668
1260.00,0.0669
1259.00,0.0670
1258.00,0.0671
1257.00,0.0671
1256.00,0.0672
1255.00,0.0673
1254.00,0.0674
1253.00,0.0674
1252.00,0.0674
1251.00,0.0675
1250.00,0.0676
1249.00,0.0676
1248.00,0.0677
1247.00,0.0678
1246.00,0.0679
1245.00,0.0679
1244.00,0.0680
1243.00,0.0680
1242.00,0.0681
1241.00,0.0682
1240.00,0.0682
1239.00,0.0683
1238.00,0.0683
1237.00,0.0683
1236.00,0.0683
1235.00,0.0683
1234.00,0.0683
1233.00,0.0683
1232.00,0.0683
1231.00,0.0683
1230.00,0.0683
1229.00,0.0683
1228.00,0.0683
1227.00,0.0684
1226.00,0.0684
1225.00,0.0684
1224.00,0.0683
1223.00,0.0683
1222.00,0.0682
1221.00,0.0682
1220.00,0.0681
1219.00,0.0680
1218.00,0.0680
1217.00,0.0679
1216.00,0.0678
1215.00,0.0678
1214.00,0.0678
1213.00,0.0677
1212.00,0.0677
1211.00,0.0677
1210.00,0.0677
1209.00,0.0676
1208.00,0.0676
1207.00,0.0676
1206.00,0.0675
1205.00,0.0675
1204.00,0.0675
1203.00,0.0675
1202.00,0.0675
1201.00,0.0675
1200.00,0.0674
1199.00,0.0673
1198.00,0.0673
1197.00,0.0672
1196.00,0.0672
1195.00,0.0671
1194.00,0.0671
1193.00,0.0670
1192.00,0.0670
1191.00,0.0670
1190.00,0.0669
1189.00,0.0669
1188.00,0.0668
1187.00,0.0668
1186.00,0.0667
1185.00,0.0667
1184.00,0.0667
1183.00,0.0667
1182.00,0.0667
1181.00,0.0667
1180.00,0.0666
1179.00,0.0667
1178.00,0.0667
1177.00,0.0667
1176.00,0.0667
1175.00,0.0667
1174.00,0.0667
1173.00,0.0666
1172.00,0.0666
1171.00,0.0666
1170.00,0.0666
1169.00,0.0666
1168.00,0.0666
1167.00,0.0666
1166.00,0.0665
1165.00,0.0665
1164.00,0.0664
1163.00,0.0664
1162.00,0.0664
1161.00,0.0664
1160.00,0.0664
1159.00,0.0663
1158.00,0.0663
1157.00,0.0663
1156.00,0.0663
1155.00,0.0663
1154.00,0.0662
1153.00,0.0661
1152.00,0.0660
1151.00,0.0658
1150.00,0.0657
1149.00,0.0657
1148.00,0.0657
1147.00,0.0656
1146.00,0.0656
1145.00,0.0656
1144.00,0.0656
1143.00,0.0655
1142.00,0.0654
1141.00,0.0653
1140.00,0.0653
1139.00,0.0653
1138.00,0.0653
1137.00,0.0653
1136.00,0.0653
1135.00,0.0652
1134.00,0.0652
1133.00,0.0652
1132.00,0.0652
1131.00,0.0651
1130.00,0.0651
1129.00,0.0650
1128.00,0.0649
1127.00,0.0648
1126.00,0.0648
1125.00,0.0648
1124.00,0.0648
1123.00,0.0649
1122.00,0.0649
1121.00,0.0650
1120.00,0.0650
1119.00,0.0651
1118.00,0.0651
1117.00,0.0652
1116.00,0.0653
1115.00,0.0654
1114.00,0.0654
1113.00,0.0653
1112.00,0.0653
1111.00,0.0654
1110.00,0.0654
1109.00,0.0655
1108.00,0.0656
1107.00,0.0657
1106.00,0.0657
1105.00,0.0657
1104.00,0.0657
1103.00,0.0657
1102.00,0.0658
1101.00,0.0658
1100.00,0.0659
1099.00,0.0659
1098.00,0.0659
1097.00,0.0658
1096.00,0.0658
1095.00,0.0658
1094.00,0.0658
1093.00,0.0658
1092.00,0.0659
1091.00,0.0659
1090.00,0.0659
1089.00,0.0660
1088.00,0.0660
1087.00,0.0661
1086.00,0.0661
1085.00,0.0661
1084.00,0.0661
1083.00,0.0661
1082.00,0.0661
1081.00,0.0660
1080.00,0.0660
1079.00,0.0661
1078.00,0.0662
1077.00,0.0664
1076.00,0.0666
1075.00,0.0668
1074.00,0.0669
1073.00,0.0669
1072.00,0.0670
1071.00,0.0670
1070.00,0.0669
1069.00,0.0669
1068.00,0.0669
1067.00,0.0669
1066.00,0.0670
1065.00,0.0671
1064.00,0.0672
1063.00,0.0672
1062.00,0.0672
1061.00,0.0673
1060.00,0.0674
1059.00,0.0675
1058.00,0.0675
1057.00,0.0674
1056.00,0.0674
1055.00,0.0674
1054.00,0.0674
1053.00,0.0674
1052.00,0.0675
1051.00,0.0676
1050.00,0.0678
1049.00,0.0679
1048.00,0.0680
1047.00,0.0680
1046.00,0.0679
1045.00,0.0678
1044.00,0.0678
1043.00,0.0679
1042.00,0.0679
1041.00,0.0680
1040.00,0.0680
1039.00,0.0681
1038.00,0.0682
1037.00,0.0682
1036.00,0.0683
1035.00,0.0683
1034.00,0.0683
1033.00,0.0683
1032.00,0.0682
1031.00,0.0682
1030.00,0.0682
1029.00,0.0681
1028.00,0.0680
1027.00,0.0679
1026.00,0.0677
1025.00,0.0677
1024.00,0.0676
1023.00,0.0676
1022.00,0.0676
1021.00,0.0676
1020.00,0.0675
1019.00,0.0674
1018.00,0.0673
1017.00,0.0671
1016.00,0.0671
1015.00,0.0671
1014.00,0.0671
1013.00,0.0672
1012.00,0.0672
1011.00,0.0671
1010.00,0.0671
1009.00,0.0670
1008.00,0.0669
1007.00,0.0668
1006.00,0.0667
1005.00,0.0665
1004.00,0.0663
1003.00,0.0662
1002.00,0.0661
1001.00,0.0661
1000.00,0.0661
999.00,0.0661
998.00,0.0660
997.00,0.0659
996.00,0.0658
995.00,0.0656
994.00,0.0655
993.00,0.0654
992.00,0.0653
991.00,0.0652
990.00,0.0651
989.00,0.0650
988.00,0.0648
987.00,0.0647
986.00,0.0647
985.00,0.0647
984.00,0.0647
983.00,0.0646
982.00,0.0645
981.00,0.0645
980.00,0.0645
979.00,0.0644
978.00,0.0643
977.00,0.0641
976.00,0.0639
975.00,0.0638
974.00,0.0637
973.00,0.0635
972.00,0.0634
971.00,0.0633
970.00,0.0633
969.00,0.0632
968.00,0.0632
967.00,0.0633
966.00,0.0633
965.00,0.0632
964.00,0.0631
963.00,0.0630
962.00,0.0629
961.00,0.0628
960.00,0.0628
959.00,0.0627
958.00,0.0626
957.00,0.0625
956.00,0.0624
955.00,0.0625
954.00,0.0625
953.00,0.0625
952.00,0.0624
951.00,0.0623
950.00,0.0624
949.00,0.0625
948.00,0.0625
947.00,0.0626
946.00,0.0626
945.00,0.0626
944.00,0.0625
943.00,0.0625
942.00,0.0624
941.00,0.0624
940.00,0.0624
939.00,0.0624
938.00,0.0624
937.00,0.0625
936.00,0.0626
935.00,0.0627
934.00,0.0628
933.00,0.0628
932.00,0.0628
931.00,0.0627
930.00,0.0626
929.00,0.0626
928.00,0.0626
927.00,0.0627
926.00,0.0629
925.00,0.0630
924.00,0.0631
923.00,0.0632
922.00,0.0632
921.00,0.0633
920.00,0.0634
919.00,0.0635
918.00,0.0637
917.00,0.0639
916.00,0.0641
915.00,0.0641
914.00,0.0641
913.00,0.0641
912.00,0.0640
911.00,0.0640
910.00,0.0640
909.00,0.0640
908.00,0.0641
907.00,0.0642
906.00,0.0643
905.00,0.0644
904.00,0.0644
903.00,0.0644
902.00,0.0643
901.00,0.0643
900.00,0.0643
899.00,0.0643
898.00,0.0644
897.00,0.0645
896.00,0.0645
895.00,0.0645
894.00,0.0645
893.00,0.0644
892.00,0.0643
891.00,0.0643
890.00,0.0643
889.00,0.0642
888.00,0.0641
887.00,0.0641
886.00,0.0640
885.00,0.0640
884.00,0.0639
883.00,0.0638
882.00,0.0637
881.00,0.0637
880.00,0.0638
879.00,0.0639
878.00,0.0640
877.00,0.0641
876.00,0.0640
875.00,0.0638
874.00,0.0636
873.00,0.0635
872.00,0.0635
871.00,0.0635
870.00,0.0636
869.00,0.0636
868.00,0.0637
867.00,0.0636
866.00,0.0635
865.00,0.0635
864.00,0.0635
863.00,0.0636
862.00,0.0637
861.00,0.0637
860.00,0.0637
859.00,0.0637
858.00,0.0636
857.00,0.0636
856.00,0.0637
855.00,0.0639
854.00,0.0640
853.00,0.0639
852.00,0.0639
851.00,0.0640
850.00,0.0641
849.00,0.0644
848.00,0.0646
847.00,0.0647
846.00,0.0649
845.00,0.0650
844.00,0.0652
843.00,0.0653
842.00,0.0652
841.00,0.0653
840.00,0.0655
839.00,0.0657
838.00,0.0658
837.00,0.0658
836.00,0.0657
835.00,0.0657
834.00,0.0657
833.00,0.0658
832.00,0.0661
831.00,0.0664
830.00,0.0667
829.00,0.0668
828.00,0.0669
827.00,0.0669
826.00,0.0670
825.00,0.0671
824.00,0.0672
823.00,0.0674
822.00,0.0676
821.00,0.0679
820.00,0.0682
819.00,0.0685
818.00,0.0686
817.00,0.0685
816.00,0.0684
815.00,0.0682
814.00,0.0681
813.00,0.0681
812.00,0.0682
811.00,0.0682
810.00,0.0682
809.00,0.0682
808.00,0.0683
807.00,0.0685
806.00,0.0687
805.00,0.0688
804.00,0.0689
803.00,0.0690
802.00,0.0691
801.00,0.0692
800.00,0.0694
799.00,0.0695
798.00,0.0696
797.00,0.0697
796.00,0.0699
795.00,0.0700
794.00,0.0700
793.00,0.0699
792.00,0.0700
791.00,0.0701
790.00,0.0702
789.00,0.0702
788.00,0.0703
787.00,0.0705
786.00,0.0705
785.00,0.0706
784.00,0.0706
783.00,0.0706
782.00,0.0707
781.00,0.0710
780.00,0.0713
779.00,0.0716
778.00,0.0719
777.00,0.0719
776.00,0.0719
775.00,0.0718
774.00,0.0718
773.00,0.0719
772.00,0.0719
771.00,0.0718
770.00,0.0719
769.00,0.0721
768.00,0.0725
767.00,0.0728
766.00,0.0730
765.00,0.0731
764.00,0.0731
763.00,0.0730
762.00,0.0729
761.00,0.0730
760.00,0.0732
759.00,0.0735
758.00,0.0737
757.00,0.0739
756.00,0.0741
755.00,0.0742
754.00,0.0742
753.00,0.0740
752.00,0.0740
751.00,0.0741
750.00,0.0743
749.00,0.0745
748.00,0.0745
747.00,0.0745
746.00,0.0744
745.00,0.0745
744.00,0.0746
743.00,0.0746
742.00,0.0747
741.00,0.0748
740.00,0.0748
739.00,0.0749
738.00,0.0749
737.00,0.0749
736.00,0.0750
735.00,0.0752
734.00,0.0752
733.00,0.0753
732.00,0.0753
731.00,0.0753
730.00,0.0756
729.00,0.0759
728.00,0.0761
727.00,0.0762
726.00,0.0761
725.00,0.0761
724.00,0.0762
723.00,0.0764
722.00,0.0766
721.00,0.0769
720.00,0.0772
719.00,0.0774
718.00,0.0775
717.00,0.0775
716.00,0.0775
715.00,0.0776
714.00,0.0778
713.00,0.0780
712.00,0.0781
711.00,0.0780
710.00,0.0778
709.00,0.0777
708.00,0.0777
707.00,0.0779
706.00,0.0782
705.00,0.0784
704.00,0.0786
703.00,0.0787
702.00,0.0788
701.00,0.0790
700.00,0.0794
699.00,0.0797
698.00,0.0799
697.00,0.0799
696.00,0.0799
695.00,0.0799
694.00,0.0800
693.00,0.0801
692.00,0.0802
691.00,0.0803
690.00,0.0804
689.00,0.0805
688.00,0.0807
687.00,0.0811
686.00,0.0815
685.00,0.0818
684.00,0.0820
683.00,0.0820
682.00,0.0821
681.00,0.0822
680.00,0.0823
679.00,0.0823
678.00,0.0821
677.00,0.0820
676.00,0.0820
675.00,0.0821
674.00,0.0822
673.00,0.0824
672.00,0.0827
671.00,0.0829
670.00,0.0830
669.00,0.0833
668.00,0.0842
667.00,0.0848
666.00,0.0847
665.00,0.0843
664.00,0.0841
663.00,0.0841
662.00,0.0843
661.00,0.0844
660.00,0.0843
659.00,0.0842
658.00,0.0840
657.00,0.0840
656.00,0.0841
655.00,0.0841
654.00,0.0841
653.00,0.0843
652.00,0.0846
651.00,0.0849
650.00,0.0852
